Time	[acc]	[toc1_mrna]	[toc1_1]	[toc1_2]	[cca1_mrna]	[cca1_c]	[cca1_n]	[toc1luc_mrna]	[toc1luc_1]	[toc1luc_2]	[cca1luc_mrna]	[cca1luc]	[luc_mrna]	[luc]
0	0.272067	0.0385665	0.206521	0.312712	0.104556	0.0513154	3.07284	0	0	0	0	0	0	0
1	0.329385	0.0340986	0.206075	0.219686	0.239198	0.112321	2.76204	0	0	0	0	0	0	0
2	0.382189	0.03225	0.203507	0.160857	0.182268	0.0891075	2.64488	0	0	0	0	0	0	0
3	0.430836	0.0332571	0.20091	0.123475	0.113958	0.0563241	2.30878	0	0	0	0	0	0	0
4	0.475652	0.0389146	0.200944	0.0997542	0.0687093	0.0339532	1.86442	0	0	0	0	0	0	0
5	0.516939	0.0519012	0.207563	0.085151	0.0432906	0.0212455	1.43593	0	0	0	0	0	0	0
6	0.554976	0.0750666	0.226286	0.0773261	0.0301547	0.0146223	1.0807	0	0	0	0	0	0	0
7	0.590017	0.10951	0.263475	0.0754714	0.0243831	0.0116305	0.811297	0	0	0	0	0	0	0
8	0.622299	0.152783	0.324216	0.0797217	0.0238384	0.0111521	0.621979	0	0	0	0	0	0	0
9	0.652039	0.199579	0.410007	0.0905224	0.0285011	0.0130911	0.504516	0	0	0	0	0	0	0
10	0.679438	0.244128	0.518029	0.108061	0.0400814	0.0181801	0.456454	0	0	0	0	0	0	0
11	0.704679	0.281381	0.641938	0.131932	0.0615108	0.0277603	0.485052	0	0	0	0	0	0	0
12	0.727933	0.306135	0.772594	0.161017	0.0955634	0.0431822	0.606621	0	0	0	0	0	0	0
13	0.670615	0.309086	0.760604	0.323099	0.0682991	0.0317184	0.76795	0	0	0	0	0	0	0
14	0.617811	0.295509	0.747852	0.433432	0.117979	0.0535428	0.950796	0	0	0	0	0	0	0
15	0.569164	0.265375	0.724008	0.505763	0.177814	0.0823204	1.32914	0	0	0	0	0	0	0
16	0.524348	0.224264	0.682648	0.54736	0.223585	0.105017	1.84719	0	0	0	0	0	0	0
17	0.483061	0.182301	0.625047	0.562645	0.249883	0.118489	2.40014	0	0	0	0	0	0	0
18	0.445024	0.145258	0.557462	0.555905	0.257687	0.12303	2.89896	0	0	0	0	0	0	0
19	0.409983	0.114742	0.486618	0.532006	0.249887	0.119967	3.28384	0	0	0	0	0	0	0
20	0.377701	0.0904836	0.417676	0.495994	0.229977	0.110952	3.52245	0	0	0	0	0	0	0
21	0.347961	0.0716175	0.353928	0.452543	0.201739	0.0977792	3.6053	0	0	0	0	0	0	0
22	0.320562	0.0572018	0.297142	0.4056	0.169072	0.0823108	3.54124	0	0	0	0	0	0	0
23	0.295321	0.0464063	0.248003	0.358243	0.135668	0.0663277	3.35312	0	0	0	0	0	0	0
24	0.272067	0.0385667	0.206521	0.312711	0.104555	0.051315	3.07284	0	0	0	0	0	0	0
25	0.329385	0.0340987	0.206075	0.219686	0.239197	0.11232	2.76204	0	0	0	0	0	0	0
26	0.382189	0.0322501	0.203507	0.160857	0.182267	0.0891072	2.64488	0	0	0	0	0	0	0
27	0.430836	0.0332572	0.20091	0.123475	0.113957	0.056324	2.30878	0	0	0	0	0	0	0
28	0.475652	0.0389147	0.200944	0.0997542	0.0687091	0.0339532	1.86441	0	0	0	0	0	0	0
29	0.516939	0.0519017	0.207564	0.085151	0.0432901	0.0212452	1.43593	0	0	0	0	0	0	0
30	0.554976	0.075067	0.226287	0.0773262	0.0301547	0.0146223	1.0807	0	0	0	0	0	0	0
31	0.590017	0.10951	0.263476	0.0754716	0.0243832	0.0116306	0.811294	0	0	0	0	0	0	0
32	0.622299	0.152783	0.324217	0.079722	0.0238386	0.0111522	0.621978	0	0	0	0	0	0	0
33	0.652039	0.199579	0.410008	0.0905227	0.0285012	0.0130912	0.504515	0	0	0	0	0	0	0
34	0.679438	0.244128	0.51803	0.108062	0.0400816	0.0181802	0.456455	0	0	0	0	0	0	0
35	0.704679	0.281381	0.64194	0.131932	0.0615112	0.0277605	0.485053	0	0	0	0	0	0	0
36	0.727933	0.306135	0.772596	0.161018	0.0955641	0.0431825	0.606624	0	0	0	0	0	0	0
37	0.670615	0.309085	0.760605	0.323099	0.0682994	0.0317185	0.767955	0	0	0	0	0	0	0
38	0.617811	0.295508	0.747853	0.433432	0.117979	0.0535429	0.950801	0	0	0	0	0	0	0
39	0.569164	0.265375	0.724008	0.505764	0.177814	0.0823205	1.32915	0	0	0	0	0	0	0
40	0.524348	0.224263	0.682647	0.54736	0.223586	0.105017	1.84719	0	0	0	0	0	0	0
41	0.483061	0.182301	0.625046	0.562645	0.249883	0.118489	2.40015	0	0	0	0	0	0	0
42	0.445025	0.145258	0.557461	0.555905	0.257687	0.12303	2.89896	0	0	0	0	0	0	0
43	0.409983	0.114742	0.486617	0.532005	0.249887	0.119967	3.28384	0	0	0	0	0	0	0
44	0.377701	0.0904834	0.417675	0.495993	0.229977	0.110952	3.52245	0	0	0	0	0	0	0
45	0.347961	0.0716172	0.353927	0.452543	0.201738	0.097779	3.6053	0	0	0	0	0	0	0
46	0.320562	0.0572016	0.297141	0.405599	0.169072	0.0823106	3.54123	0	0	0	0	0	0	0
47	0.295321	0.046406	0.248003	0.358243	0.135668	0.0663276	3.35312	0	0	0	0	0	0	0
48	0.272067	0.0385665	0.206521	0.312711	0.104555	0.0513149	3.07283	0	0	0	0	0	0	0
49	0.329385	0.0340986	0.206075	0.219685	0.239197	0.11232	2.76204	0	0	0	0	0	0	0
50	0.382189	0.03225	0.203506	0.160857	0.182267	0.0891071	2.64487	0	0	0	0	0	0	0
51	0.430836	0.0332572	0.20091	0.123475	0.113957	0.0563237	2.30877	0	0	0	0	0	0	0
52	0.475652	0.0389148	0.200944	0.0997539	0.0687088	0.033953	1.86441	0	0	0	0	0	0	0
53	0.516939	0.0519016	0.207563	0.0851509	0.0432904	0.0212454	1.43592	0	0	0	0	0	0	0
54	0.554976	0.0750672	0.226286	0.077326	0.0301546	0.0146223	1.08069	0	0	0	0	0	0	0
55	0.590017	0.10951	0.263476	0.0754715	0.0243831	0.0116305	0.811292	0	0	0	0	0	0	0
56	0.622299	0.152784	0.324218	0.0797219	0.0238385	0.0111521	0.621976	0	0	0	0	0	0	0
57	0.652039	0.199579	0.410009	0.0905227	0.0285012	0.0130912	0.504514	0	0	0	0	0	0	0
58	0.679438	0.244128	0.518031	0.108062	0.0400817	0.0181802	0.456453	0	0	0	0	0	0	0
59	0.704679	0.281381	0.64194	0.131933	0.0615113	0.0277605	0.485052	0	0	0	0	0	0	0
60	0.727933	0.306135	0.772597	0.161018	0.0955645	0.0431827	0.606624	0	0	0	0	0	0	0
61	0.670615	0.309086	0.760606	0.3231	0.0682997	0.0317186	0.767956	0	0	0	0	0	0	0
62	0.617811	0.295508	0.747854	0.433433	0.11798	0.0535431	0.950803	0	0	0	0	0	0	0
63	0.569164	0.265375	0.724009	0.505764	0.177815	0.0823207	1.32915	0	0	0	0	0	0	0
64	0.524348	0.224263	0.682648	0.547361	0.223586	0.105017	1.8472	0	0	0	0	0	0	0
65	0.483061	0.1823	0.625047	0.562645	0.249884	0.11849	2.40015	0	0	0	0	0	0	0
66	0.445024	0.145258	0.557461	0.555905	0.257687	0.12303	2.89897	0	0	0	0	0	0	0
67	0.409983	0.114742	0.486617	0.532006	0.249887	0.119968	3.28384	0	0	0	0	0	0	0
68	0.377701	0.0904833	0.417675	0.495993	0.229977	0.110952	3.52246	0	0	0	0	0	0	0
69	0.347961	0.0716171	0.353927	0.452543	0.201738	0.0977791	3.6053	0	0	0	0	0	0	0
70	0.320562	0.0572015	0.297141	0.405599	0.169072	0.0823107	3.54124	0	0	0	0	0	0	0
71	0.295321	0.046406	0.248003	0.358243	0.135668	0.0663277	3.35312	0	0	0	0	0	0	0
72	0.272067	0.0385665	0.20652	0.312711	0.104555	0.0513149	3.07284	0	0	0	0	0	0	0
73	0.329385	0.0340986	0.206075	0.219685	0.239196	0.11232	2.76204	0	0	0	0	0	0	0
74	0.382189	0.03225	0.203506	0.160857	0.182266	0.0891069	2.64487	0	0	0	0	0	0	0
75	0.430836	0.0332572	0.200909	0.123474	0.113957	0.0563237	2.30877	0	0	0	0	0	0	0
76	0.475652	0.0389148	0.200944	0.0997539	0.0687086	0.0339529	1.86441	0	0	0	0	0	0	0
77	0.516939	0.0519016	0.207563	0.0851508	0.0432902	0.0212453	1.43592	0	0	0	0	0	0	0
78	0.554976	0.0750671	0.226286	0.0773259	0.0301545	0.0146222	1.08069	0	0	0	0	0	0	0
79	0.590017	0.10951	0.263476	0.0754714	0.024383	0.0116305	0.811292	0	0	0	0	0	0	0
80	0.622299	0.152784	0.324218	0.0797218	0.0238384	0.0111521	0.621975	0	0	0	0	0	0	0
81	0.652039	0.19958	0.410009	0.0905227	0.0285012	0.0130911	0.504513	0	0	0	0	0	0	0
82	0.679438	0.244128	0.518031	0.108062	0.0400816	0.0181802	0.456453	0	0	0	0	0	0	0
83	0.704679	0.281381	0.641941	0.131933	0.0615114	0.0277606	0.485052	0	0	0	0	0	0	0
84	0.727933	0.306135	0.772597	0.161018	0.0955645	0.0431827	0.606625	0	0	0	0	0	0	0
85	0.670615	0.309086	0.760606	0.3231	0.0682997	0.0317187	0.767957	0	0	0	0	0	0	0
86	0.617811	0.295508	0.747854	0.433433	0.11798	0.0535431	0.950804	0	0	0	0	0	0	0
87	0.569164	0.265375	0.724009	0.505764	0.177815	0.0823207	1.32915	0	0	0	0	0	0	0
88	0.524348	0.224263	0.682648	0.547361	0.223586	0.105017	1.8472	0	0	0	0	0	0	0
89	0.483061	0.1823	0.625047	0.562645	0.249884	0.11849	2.40015	0	0	0	0	0	0	0
90	0.445024	0.145258	0.557461	0.555905	0.257687	0.12303	2.89897	0	0	0	0	0	0	0
91	0.409983	0.114742	0.486617	0.532006	0.249887	0.119967	3.28384	0	0	0	0	0	0	0
92	0.377701	0.0904832	0.417674	0.495993	0.229977	0.110952	3.52246	0	0	0	0	0	0	0
93	0.347961	0.071617	0.353927	0.452543	0.201738	0.097779	3.6053	0	0	0	0	0	0	0
94	0.320562	0.0572015	0.297141	0.405599	0.169072	0.0823106	3.54124	0	0	0	0	0	0	0
95	0.295321	0.046406	0.248003	0.358243	0.135668	0.0663276	3.35312	0	0	0	0	0	0	0
96	0.272067	0.0385664	0.20652	0.312711	0.104555	0.0513149	3.07284	0	0	0	0	0	0	0
97	0.329385	0.0340986	0.206075	0.219685	0.239196	0.11232	2.76204	0	0	0	0	0	0	0
98	0.382189	0.03225	0.203506	0.160857	0.182266	0.0891069	2.64487	0	0	0	0	0	0	0
99	0.430836	0.0332571	0.200909	0.123474	0.113957	0.0563237	2.30877	0	0	0	0	0	0	0
100	0.475652	0.0389147	0.200944	0.0997538	0.0687086	0.0339529	1.86441	0	0	0	0	0	0	0
