Time	[IX]	[IX_TF_VIIa]	[TF_VIIa]	[IXa]	[X]	[X_TF_VIIa]	[Xa]	[VIIIa_IXa]	[X_VIIIa_IXa]	[V]	[Va]	[VIII]	[VIIIa]	[IIa]	[II]	[II_Va_Xa]	[Va_Xa]	[mIIa]	Values[I]
0	9e-08	0	5e-09	0	1.7e-07	0	0	0	0	2e-08	0	7e-10	0	0	1.4e-06	0	0	0	0
1	8.86375e-08	1.05048e-09	2.87974e-09	3.12061e-10	1.67708e-07	1.06978e-09	1.21546e-09	1.41048e-15	1.91604e-15	1.97577e-08	2.35237e-10	6.95714e-10	4.2825e-12	9.17958e-17	1.39997e-06	4.01179e-12	3.03473e-12	2.66611e-11	-1.20651e-17
2	8.83079e-08	1.04903e-09	2.88649e-09	6.42972e-10	1.66486e-07	1.06448e-09	2.34579e-09	2.27702e-14	3.63803e-14	1.89612e-08	9.34764e-10	6.79763e-10	2.0178e-11	7.1629e-14	1.39916e-06	5.96814e-11	4.43362e-11	7.82751e-10	-3.61571e-16
3	8.79694e-08	1.04749e-09	2.89332e-09	9.82725e-10	1.65269e-07	1.0592e-09	3.15795e-09	1.52912e-13	2.53807e-13	1.70114e-08	2.47465e-09	6.27135e-10	7.24586e-11	3.79143e-12	1.39399e-06	2.95119e-10	2.18798e-10	5.71167e-09	-3.23463e-15
4	8.76245e-08	1.04587e-09	2.90022e-09	1.32759e-09	1.64053e-07	1.05391e-09	3.22193e-09	7.66896e-13	1.29704e-12	1.22333e-08	6.09639e-09	4.65991e-10	2.31945e-10	6.81893e-11	1.37483e-06	9.54938e-10	7.15398e-10	2.41451e-08	-1.91522e-14
5	8.72776e-08	1.04424e-09	2.90722e-09	1.67052e-09	1.62823e-07	1.04854e-09	2.41635e-09	2.78742e-12	4.86762e-12	4.67889e-09	1.16134e-08	1.83398e-10	5.08947e-10	6.18377e-10	1.3256e-06	2.08984e-09	1.61783e-09	7.16943e-08	-8.56517e-14
6	8.69301e-08	1.04266e-09	2.91441e-09	2.00849e-09	1.61551e-07	1.04293e-09	1.81736e-09	6.6834e-12	1.21081e-11	4.82545e-10	1.39408e-08	1.93073e-11	6.61901e-10	2.97244e-09	1.24102e-06	3.05765e-09	2.51902e-09	1.5295e-07	-2.76529e-13
7	8.65783e-08	1.04111e-09	2.92192e-09	2.34726e-09	1.60214e-07	1.03697e-09	1.85839e-09	1.16991e-11	2.16127e-11	7.23297e-12	1.31239e-08	2.94657e-13	6.66394e-10	8.90041e-09	1.13293e-06	3.61262e-09	3.25626e-09	2.54556e-07	-6.59542e-13
8	8.62191e-08	1.03959e-09	2.9298e-09	2.69149e-09	1.588e-07	1.03061e-09	2.18965e-09	1.74378e-11	3.2384e-11	1.08102e-14	1.20529e-08	4.49328e-16	6.50178e-10	2.01614e-08	1.01111e-06	3.95483e-09	3.99229e-09	3.64777e-07	-1.27789e-12
9	8.58504e-08	1.03808e-09	2.93813e-09	3.04345e-09	1.573e-07	1.02379e-09	2.66026e-09	2.38523e-11	4.42422e-11	1.29183e-18	1.10287e-08	5.50012e-20	6.31905e-10	3.87281e-08	8.80755e-07	4.15635e-09	4.81494e-09	4.7636e-07	-2.16945e-12
10	8.54702e-08	1.03659e-09	2.94694e-09	3.40516e-09	1.55707e-07	1.01647e-09	3.25816e-09	3.092e-11	5.70841e-11	-3.98175e-21	1.00386e-08	-1.65592e-22	6.11996e-10	6.67714e-08	7.46427e-07	4.20948e-09	5.75191e-09	5.82592e-07	-3.37249e-12
11	8.50767e-08	1.03509e-09	2.9563e-09	3.77881e-09	1.54013e-07	1.00861e-09	4.0021e-09	3.86179e-11	7.08019e-11	-6.75645e-21	9.09431e-09	-2.80316e-22	5.9058e-10	1.06411e-07	6.13192e-07	4.09631e-09	6.80939e-09	6.763e-07	-4.92592e-12
12	8.46675e-08	1.03358e-09	2.96624e-09	4.16672e-09	1.52212e-07	1.00019e-09	4.91504e-09	4.69229e-11	8.52824e-11	6.22243e-24	8.21266e-09	2.77557e-25	5.67795e-10	1.59309e-07	4.86548e-07	3.80924e-09	7.9781e-09	7.50334e-07	-6.86929e-12
13	8.42406e-08	1.03203e-09	2.97681e-09	4.57116e-09	1.503e-07	9.91158e-10	6.01531e-09	5.58114e-11	1.00407e-10	-1.16812e-24	7.40693e-09	-4.4562e-26	5.43781e-10	2.26144e-07	3.71794e-07	3.36766e-09	9.22542e-09	7.98694e-07	-9.24281e-12
14	8.37941e-08	1.03044e-09	2.98806e-09	4.99415e-09	1.48273e-07	9.81499e-10	7.3118e-09	6.52583e-11	1.16052e-10	-1.43063e-25	6.68191e-09	-5.21935e-27	5.1869e-10	3.06132e-07	2.73171e-07	2.81783e-09	1.05003e-08	8.17879e-07	-1.20874e-11
15	8.33267e-08	1.0288e-09	3.00002e-09	5.43718e-09	1.46127e-07	9.71184e-10	8.80269e-09	7.52357e-11	1.32083e-10	1.39823e-25	6.0328e-09	5.33718e-27	4.92681e-10	3.96822e-07	1.93026e-07	2.22741e-09	1.17398e-08	8.07924e-07	-1.54444e-11
16	8.28377e-08	1.02709e-09	3.01272e-09	5.90116e-09	1.43861e-07	9.60191e-10	1.04789e-08	8.57122e-11	1.48362e-10	1.19487e-26	5.44873e-09	4.70115e-28	4.65926e-10	4.94394e-07	1.31455e-07	1.66581e-09	1.28855e-08	7.72485e-07	-1.93558e-11
17	8.23268e-08	1.02532e-09	3.02617e-09	6.38645e-09	1.41475e-07	9.48503e-10	1.23301e-08	9.66513e-11	1.64737e-10	2.76011e-27	4.91865e-09	1.01286e-28	4.38612e-10	5.944e-07	8.65961e-08	1.18399e-09	1.38974e-08	7.1782e-07	-2.38639e-11
18	8.17943e-08	1.02348e-09	3.04041e-09	6.89313e-09	1.3897e-07	9.36107e-10	1.43486e-08	1.08011e-10	1.81051e-10	-1.35974e-28	4.43556e-09	-5.1879e-30	4.10937e-10	6.92614e-07	5.5428e-08	8.05232e-10	1.47592e-08	6.51152e-07	-2.90112e-11
19	8.12404e-08	1.02158e-09	3.05543e-09	7.42113e-09	1.36347e-07	9.22996e-10	1.65298e-08	1.19746e-10	1.97144e-10	1.58934e-30	3.9969e-09	6.38313e-32	3.8311e-10	7.85669e-07	3.46321e-08	5.27706e-10	1.54754e-08	5.79171e-07	-3.48398e-11
20	8.06653e-08	1.0196e-09	3.07123e-09	7.97044e-09	1.3361e-07	9.0917e-10	1.887e-08	1.31805e-10	2.12851e-10	-5.21939e-30	3.60229e-09	-2.019e-31	3.55344e-10	8.7131e-07	2.12125e-08	3.3557e-10	1.60621e-08	5.07142e-07	-4.1392e-11
21	8.00692e-08	1.01754e-09	3.08783e-09	8.54117e-09	1.30764e-07	8.94634e-10	2.13642e-08	1.44134e-10	2.28012e-10	1.42362e-30	3.25122e-09	5.31044e-32	3.27854e-10	9.48344e-07	1.27838e-08	2.08298e-10	1.65405e-08	4.38664e-07	-4.87094e-11
22	7.9452e-08	1.01538e-09	3.10522e-09	9.13347e-09	1.27816e-07	8.79403e-10	2.40045e-08	1.56678e-10	2.42473e-10	1.37454e-31	2.94191e-09	5.28316e-33	3.00849e-10	1.01642e-06	7.60298e-09	1.26831e-10	1.69313e-08	3.7585e-07	-5.68331e-11
23	7.88138e-08	1.01312e-09	3.12338e-09	9.74757e-09	1.24771e-07	8.63497e-10	2.67808e-08	1.69379e-10	2.56091e-10	-7.5834e-32	2.67122e-09	-3.19973e-33	2.7453e-10	1.07577e-06	4.47307e-09	7.60458e-11	1.72527e-08	3.19686e-07	-6.58037e-11
24	7.81547e-08	1.01074e-09	3.14231e-09	1.03837e-08	1.21639e-07	8.46944e-10	2.96809e-08	1.82181e-10	2.68736e-10	3.59926e-32	2.43522e-09	1.34971e-33	2.49083e-10	1.12696e-06	2.6082e-09	4.50328e-11	1.75197e-08	2.70384e-07	-7.56609e-11
25	7.74745e-08	1.00823e-09	3.16199e-09	1.10419e-08	1.18428e-07	8.29777e-10	3.26913e-08	1.95028e-10	2.80295e-10	1.00744e-31	2.22971e-09	2.75683e-33	2.24677e-10	1.17078e-06	1.5095e-09	2.63987e-11	1.77439e-08	2.27686e-07	-8.6444e-11
26	7.67735e-08	1.00556e-09	3.1824e-09	1.17224e-08	1.1515e-07	8.12034e-10	3.57981e-08	2.07866e-10	2.90673e-10	-5.74522e-31	2.05061e-09	-1.8243e-32	2.01461e-10	1.20804e-06	8.68137e-10	1.53463e-11	1.7934e-08	1.91073e-07	-9.81914e-11
27	7.60517e-08	1.00272e-09	3.20352e-09	1.24251e-08	1.11814e-07	7.93759e-10	3.89869e-08	2.20644e-10	2.99796e-10	-3.21462e-34	1.89421e-09	-1.01689e-35	1.79561e-10	1.23958e-06	4.96603e-10	8.85877e-12	1.80969e-08	1.59913e-07	-1.10941e-10
28	7.53095e-08	9.997e-10	3.2253e-09	1.31498e-08	1.08431e-07	7.75002e-10	4.22433e-08	2.33315e-10	3.0761e-10	1.80052e-34	1.75726e-09	5.24634e-36	1.59075e-10	1.26617e-06	2.82763e-10	5.08364e-12	1.82377e-08	1.33542e-07	-1.24731e-10
29	7.45473e-08	9.96469e-10	3.24772e-09	1.38963e-08	1.05014e-07	7.55813e-10	4.55531e-08	2.45836e-10	3.14086e-10	1.57253e-34	1.63696e-09	4.47663e-36	1.40077e-10	1.28851e-06	1.6036e-10	2.90252e-12	1.83601e-08	1.11322e-07	-1.39597e-10
30	7.37656e-08	9.93018e-10	3.27073e-09	1.4664e-08	1.01573e-07	7.36247e-10	4.89025e-08	2.58172e-10	3.19214e-10	3.30059e-33	1.53092e-09	9.11675e-35	1.22613e-10	1.30724e-06	9.06258e-11	1.64996e-12	1.84674e-08	9.26635e-08	-1.55578e-10
31	7.2965e-08	9.8933e-10	3.29431e-09	1.54524e-08	9.81198e-08	7.16361e-10	5.2278e-08	2.70293e-10	3.23006e-10	-1.1444e-39	1.43713e-09	-3.7314e-41	1.06701e-10	1.32291e-06	5.1059e-11	9.34395e-13	1.85619e-08	7.70374e-08	-1.7271e-10
32	7.21461e-08	9.85391e-10	3.3184e-09	1.62608e-08	9.46654e-08	6.96213e-10	5.56667e-08	2.82174e-10	3.25492e-10	1.48602e-38	1.35389e-09	4.36097e-40	9.23337e-11	1.33599e-06	2.86888e-11	5.27395e-13	1.86456e-08	6.39798e-08	-1.9103e-10
33	7.13099e-08	9.81189e-10	3.34295e-09	1.70884e-08	9.12207e-08	6.7586e-10	5.90565e-08	2.93799e-10	3.26721e-10	1.22654e-38	1.27978e-09	2.71855e-40	7.948e-11	1.3469e-06	1.60808e-11	2.96811e-13	1.87199e-08	5.3088e-08	-2.10579e-10
34	7.04571e-08	9.76711e-10	3.36793e-09	1.79342e-08	8.77957e-08	6.5536e-10	6.24358e-08	3.05159e-10	3.26754e-10	-2.14672e-39	1.21358e-09	-5.2618e-41	6.8087e-11	1.35597e-06	8.9944e-12	1.66603e-13	1.87863e-08	4.40164e-08	-2.31394e-10
35	6.95889e-08	9.71949e-10	3.39328e-09	1.87972e-08	8.43998e-08	6.3477e-10	6.5794e-08	3.16252e-10	3.25665e-10	9.86172e-40	1.15427e-09	2.43343e-41	5.80833e-11	1.36352e-06	5.02117e-12	9.33031e-14	1.88456e-08	3.64703e-08	-2.53517e-10
36	6.87061e-08	9.66896e-10	3.41896e-09	1.96763e-08	8.10421e-08	6.14144e-10	6.91212e-08	3.27079e-10	3.23538e-10	-5.34215e-41	1.10098e-09	-1.93922e-42	4.93825e-11	1.3698e-06	2.79829e-12	5.21457e-14	1.8899e-08	3.01999e-08	-2.7699e-10
37	6.781e-08	9.61544e-10	3.44492e-09	2.05703e-08	7.77303e-08	5.93534e-10	7.24086e-08	3.37652e-10	3.20461e-10	2.69314e-41	1.05297e-09	6.86386e-43	4.18867e-11	1.375e-06	1.55708e-12	2.90901e-14	1.8947e-08	2.49943e-08	-3.01858e-10
38	6.69016e-08	9.55891e-10	3.47112e-09	2.1478e-08	7.44719e-08	5.72991e-10	7.56482e-08	3.47983e-10	3.16526e-10	-3.55511e-42	1.00959e-09	-8.87066e-44	3.54905e-11	1.37932e-06	8.65211e-13	1.62016e-14	1.89904e-08	2.06763e-08	-3.28167e-10
39	6.59822e-08	9.49935e-10	3.4975e-09	2.2398e-08	7.12731e-08	5.52561e-10	7.88329e-08	3.58091e-10	3.11825e-10	-2.34542e-43	9.70314e-10	-4.79104e-45	3.00844e-11	1.3829e-06	4.80161e-13	9.01004e-15	1.90297e-08	1.70971e-08	-3.55967e-10
40	6.50529e-08	9.43674e-10	3.52404e-09	2.3329e-08	6.81396e-08	5.32289e-10	8.19563e-08	3.67994e-10	3.06448e-10	-9.21668e-44	9.34659e-10	-2.4787e-45	2.55583e-11	1.38587e-06	2.66169e-13	5.00398e-15	1.90653e-08	1.4132e-08	-3.85309e-10
41	6.41149e-08	9.37112e-10	3.55067e-09	2.42698e-08	6.50763e-08	5.12213e-10	8.50132e-08	3.77714e-10	3.00482e-10	-6.75084e-43	9.0222e-10	-1.8182e-44	2.1804e-11	1.38832e-06	1.47393e-13	2.77574e-15	1.90978e-08	1.16771e-08	-4.1625e-10
42	6.31694e-08	9.3025e-10	3.57738e-09	2.52191e-08	6.20873e-08	4.92373e-10	8.7999e-08	3.87272e-10	2.94009e-10	-8.60338e-43	8.72645e-10	-2.13379e-44	1.87184e-11	1.39035e-06	8.15434e-14	1.53804e-15	1.91274e-08	9.6457e-09	-4.48846e-10
43	6.22177e-08	9.23095e-10	3.6041e-09	2.61754e-08	5.91759e-08	4.72803e-10	9.09098e-08	3.9669e-10	2.87105e-10	-3.33597e-41	8.45627e-10	-7.45821e-43	1.62046e-11	1.39203e-06	4.50746e-14	8.51295e-16	1.91544e-08	7.96539e-09	-4.8316e-10
44	6.1261e-08	9.15651e-10	3.63082e-09	2.71376e-08	5.63452e-08	4.53533e-10	9.37424e-08	4.05987e-10	2.79839e-10	-1.37782e-40	8.20899e-10	-2.97112e-42	1.41739e-11	1.39342e-06	2.48964e-14	4.70376e-16	1.91791e-08	6.57608e-09	-5.19256e-10
45	6.03004e-08	9.07926e-10	3.65748e-09	2.81043e-08	5.35972e-08	4.34592e-10	9.64942e-08	4.15178e-10	2.72275e-10	-3.25895e-41	7.98227e-10	-7.02874e-43	1.25464e-11	1.39457e-06	1.37412e-14	2.60157e-16	1.92018e-08	5.42781e-09	-5.57203e-10
46	5.9337e-08	8.99929e-10	3.68406e-09	2.90743e-08	5.09337e-08	4.16007e-10	9.91632e-08	4.24279e-10	2.6447e-10	2.53322e-41	7.77405e-10	6.50318e-43	1.12515e-11	1.39552e-06	7.57974e-15	1.43546e-16	1.92226e-08	4.47906e-09	-5.97071e-10
47	5.83721e-08	8.91668e-10	3.71053e-09	3.00465e-08	4.8356e-08	3.978e-10	1.01748e-07	4.33299e-10	2.56473e-10	-1.54891e-41	7.58253e-10	-5.02601e-43	1.02276e-11	1.3963e-06	4.17932e-15	7.95667e-17	1.92417e-08	3.69541e-09	-6.38937e-10
48	5.74067e-08	8.83155e-10	3.73685e-09	3.10196e-08	4.5865e-08	3.79993e-10	1.04247e-07	4.42246e-10	2.48331e-10	7.26737e-41	7.40613e-10	2.22756e-42	9.42229e-12	1.39695e-06	2.30308e-15	4.28527e-17	1.92594e-08	3.0483e-09	-6.82877e-10
49	5.64418e-08	8.74399e-10	3.763e-09	3.19926e-08	4.34611e-08	3.62604e-10	1.06661e-07	4.51125e-10	2.40084e-10	2.22263e-41	7.24344e-10	5.43783e-43	8.79114e-12	1.39749e-06	1.26791e-15	2.40691e-17	1.92757e-08	2.51409e-09	-7.28974e-10
50	5.54785e-08	8.65413e-10	3.78894e-09	3.29644e-08	4.11446e-08	3.45651e-10	1.08987e-07	4.59935e-10	2.31767e-10	-2.31109e-42	7.09322e-10	-6.4084e-44	8.29747e-12	1.39793e-06	6.98497e-16	1.3285e-17	1.92907e-08	2.07319e-09	-7.77314e-10
51	5.45177e-08	8.56209e-10	3.81464e-09	3.3934e-08	3.89152e-08	3.29148e-10	1.11228e-07	4.68675e-10	2.23414e-10	-6.55881e-43	6.95436e-10	-1.69392e-44	7.9112e-12	1.39829e-06	3.8517e-16	7.3325e-18	1.93046e-08	1.70938e-09	-8.27984e-10
52	5.35604e-08	8.46799e-10	3.84009e-09	3.49004e-08	3.67726e-08	3.13108e-10	1.13382e-07	4.77339e-10	2.15054e-10	-5.5922e-42	6.82589e-10	-1.4723e-43	7.60792e-12	1.39859e-06	2.11223e-16	4.02244e-18	1.93174e-08	1.40919e-09	-8.81078e-10
53	5.26075e-08	8.37196e-10	3.86526e-09	3.58627e-08	3.47162e-08	2.97543e-10	1.1545e-07	4.85919e-10	2.06713e-10	-6.43393e-42	6.70693e-10	-1.66561e-43	7.36842e-12	1.39884e-06	1.15427e-16	2.19829e-18	1.93293e-08	1.16156e-09	-9.3669e-10
54	5.16597e-08	8.27413e-10	3.89013e-09	3.68201e-08	3.27452e-08	2.82461e-10	1.17434e-07	4.94406e-10	1.98416e-10	8.97234e-42	6.5967e-10	2.27169e-43	7.17755e-12	1.39904e-06	6.33104e-17	1.21046e-18	1.93403e-08	9.57344e-10	-9.9492e-10
55	5.07179e-08	8.17464e-10	3.91467e-09	3.77717e-08	3.08584e-08	2.67871e-10	1.19333e-07	5.0279e-10	1.90186e-10	-6.32622e-43	6.49448e-10	-1.85754e-44	7.02345e-12	1.39921e-06	3.4622e-17	6.60848e-19	1.93506e-08	7.88946e-10	-1.05587e-09
56	4.97828e-08	8.07362e-10	3.93886e-09	3.87168e-08	2.90546e-08	2.53778e-10	1.2115e-07	5.11058e-10	1.82045e-10	8.79115e-43	6.39965e-10	2.31356e-44	6.89702e-12	1.39935e-06	1.879e-17	3.58794e-19	1.936e-08	6.50099e-10	-1.11965e-09
57	4.8855e-08	7.97122e-10	3.96269e-09	3.96546e-08	2.73325e-08	2.40186e-10	1.22884e-07	5.19197e-10	1.74012e-10	-3.60373e-44	6.31163e-10	-1.45919e-45	6.79136e-12	1.39946e-06	1.02171e-17	1.95169e-19	1.93688e-08	5.3564e-10	-1.18637e-09
58	4.79353e-08	7.86755e-10	3.98615e-09	4.05846e-08	2.56905e-08	2.27097e-10	1.24539e-07	5.27194e-10	1.66105e-10	-9.27812e-44	6.2299e-10	-2.5757e-45	6.70123e-12	1.39956e-06	5.51308e-18	1.05349e-19	1.9377e-08	4.41286e-10	-1.25613e-09
59	4.70243e-08	7.76278e-10	4.00921e-09	4.15061e-08	2.41268e-08	2.14514e-10	1.26116e-07	5.35036e-10	1.58342e-10	1.98337e-44	6.154e-10	5.50734e-46	6.62273e-12	1.39964e-06	2.92252e-18	5.58709e-20	1.93846e-08	3.63516e-10	-1.32907e-09
60	4.61224e-08	7.65702e-10	4.03187e-09	4.24185e-08	2.26397e-08	2.02433e-10	1.27615e-07	5.42709e-10	1.50738e-10	5.58747e-45	6.08348e-10	9.71646e-47	6.55297e-12	1.3997e-06	1.52125e-18	2.91015e-20	1.93917e-08	2.99427e-10	-1.4053e-09
61	4.52302e-08	7.55041e-10	4.05411e-09	4.33213e-08	2.12272e-08	1.90854e-10	1.2904e-07	5.50203e-10	1.43307e-10	-4.36514e-46	6.01796e-10	-3.22789e-47	6.48977e-12	1.39975e-06	7.90756e-19	1.51353e-20	1.93982e-08	2.46621e-10	-1.48496e-09
62	4.43481e-08	7.44309e-10	4.07592e-09	4.4214e-08	1.98872e-08	1.79771e-10	1.30393e-07	5.57504e-10	1.36064e-10	5.06107e-46	5.95707e-10	4.64152e-47	6.43155e-12	1.3998e-06	4.15613e-19	7.95769e-21	1.94043e-08	2.03115e-10	-1.56816e-09
63	4.34766e-08	7.33518e-10	4.0973e-09	4.50962e-08	1.86175e-08	1.6918e-10	1.31674e-07	5.64603e-10	1.2902e-10	2.28408e-44	5.90049e-10	7.02559e-46	6.37711e-12	1.39983e-06	2.1906e-19	4.1938e-21	1.941e-08	1.67271e-10	-1.65506e-09
64	4.2616e-08	7.22682e-10	4.11824e-09	4.59676e-08	1.74159e-08	1.59074e-10	1.32888e-07	5.7149e-10	1.22184e-10	7.82013e-44	5.84791e-10	2.17925e-45	6.32561e-12	1.39986e-06	1.38947e-19	2.65557e-21	1.94152e-08	1.3776e-10	-1.74578e-09
65	4.17667e-08	7.11813e-10	4.13874e-09	4.68277e-08	1.62802e-08	1.49443e-10	1.34035e-07	5.78157e-10	1.15566e-10	1.19412e-43	5.79906e-10	3.19585e-45	6.27641e-12	1.39989e-06	1.22307e-19	2.33009e-21	1.94201e-08	1.13464e-10	-1.84049e-09
66	4.09289e-08	7.00923e-10	4.1588e-09	4.76764e-08	1.52079e-08	1.40279e-10	1.35118e-07	5.84598e-10	1.09173e-10	1.63792e-43	5.75366e-10	4.5531e-45	6.22898e-12	1.39991e-06	1.23053e-19	2.33349e-21	1.94246e-08	9.34568e-11	-1.93933e-09
67	4.0103e-08	6.90023e-10	4.17841e-09	4.85132e-08	1.41967e-08	1.31572e-10	1.3614e-07	5.90806e-10	1.03011e-10	4.22576e-44	5.7115e-10	8.62839e-46	6.18295e-12	1.39992e-06	1.14989e-19	2.18852e-21	1.94289e-08	7.69741e-11	-2.04246e-09
68	3.92891e-08	6.79125e-10	4.19757e-09	4.9338e-08	1.32442e-08	1.23309e-10	1.37103e-07	5.96777e-10	9.70847e-11	6.03057e-44	5.6723e-10	1.72308e-45	6.13802e-12	1.39994e-06	8.47703e-20	1.60707e-21	1.94328e-08	6.33888e-11	-2.15004e-09
69	3.84873e-08	6.68239e-10	4.21628e-09	5.01505e-08	1.23478e-08	1.15478e-10	1.38009e-07	6.0251e-10	9.1396e-11	8.58316e-44	5.6359e-10	2.90443e-45	6.09399e-12	1.39995e-06	4.46691e-20	8.42815e-22	1.94364e-08	5.21923e-11	-2.26226e-09
70	3.7698e-08	6.57378e-10	4.23456e-09	5.09507e-08	1.15053e-08	1.08066e-10	1.38861e-07	6.08002e-10	8.5947e-11	-7.38546e-43	5.60232e-10	-2.25038e-44	6.05075e-12	1.39996e-06	1.61725e-20	4.00981e-22	1.94398e-08	4.29712e-11	-2.37929e-09
71	3.69211e-08	6.46548e-10	4.25239e-09	5.17383e-08	1.0714e-08	1.01059e-10	1.39661e-07	6.13254e-10	8.07379e-11	-1.9588e-43	5.57089e-10	-5.78708e-45	6.00818e-12	1.39996e-06	6.5085e-21	1.37696e-22	1.94429e-08	3.538e-11	-2.50131e-09
72	3.61568e-08	6.35761e-10	4.2698e-09	5.25134e-08	9.97172e-09	9.44437e-11	1.40412e-07	6.18266e-10	7.57675e-11	3.82745e-43	5.54153e-10	1.14072e-44	5.9662e-12	1.39997e-06	8.88528e-21	1.19933e-22	1.94458e-08	2.91318e-11	-2.62852e-09
73	3.54052e-08	6.25025e-10	4.28677e-09	5.32757e-08	9.27598e-09	8.82049e-11	1.41116e-07	6.23041e-10	7.10338e-11	2.84224e-43	5.51438e-10	8.2284e-45	5.92473e-12	1.39998e-06	1.10463e-20	1.9197e-22	1.94486e-08	2.39868e-11	-2.76112e-09
74	3.46663e-08	6.14348e-10	4.30332e-09	5.40253e-08	8.62447e-09	8.23278e-11	1.41776e-07	6.27583e-10	6.65335e-11	-3.39437e-43	5.48942e-10	-1.04534e-44	5.88373e-12	1.39998e-06	6.49714e-21	1.82124e-22	1.94511e-08	1.97482e-11	-2.89932e-09
75	3.39401e-08	6.03739e-10	4.31946e-09	5.4762e-08	8.0149e-09	7.67964e-11	1.42393e-07	6.31894e-10	6.22625e-11	9.95429e-43	5.46546e-10	2.74944e-44	5.84316e-12	1.39998e-06	1.45905e-21	-6.80588e-23	1.94535e-08	1.62568e-11	-3.04334e-09
76	3.32266e-08	5.93204e-10	4.3352e-09	5.5486e-08	7.44504e-09	7.15982e-11	1.4297e-07	6.35981e-10	5.82157e-11	-3.38377e-42	5.44726e-10	-9.35387e-44	5.803e-12	1.39999e-06	-3.64874e-21	3.17772e-22	1.94553e-08	1.3384e-11	-3.19342e-09
77	3.25258e-08	5.82751e-10	4.35053e-09	5.61973e-08	6.91272e-09	6.67148e-11	1.43509e-07	6.39849e-10	5.43874e-11	-2.82746e-42	5.42666e-10	-7.91727e-44	5.76325e-12	1.39999e-06	-4.27002e-21	2.14386e-22	1.94573e-08	1.10194e-11	-3.34978e-09
78	3.18376e-08	5.72386e-10	4.36548e-09	5.68957e-08	6.41585e-09	6.21312e-11	1.44012e-07	6.43505e-10	5.07713e-11	2.93848e-42	5.40396e-10	8.01498e-44	5.72391e-12	1.39999e-06	-8.82952e-22	-3.7681e-22	1.94596e-08	9.07234e-12	-3.51267e-09
79	3.1162e-08	5.62113e-10	4.38005e-09	5.75815e-08	5.9524e-09	5.78373e-11	1.44482e-07	6.46954e-10	4.73605e-11	-1.01328e-42	5.39109e-10	-2.49657e-44	5.68498e-12	1.39999e-06	9.20624e-22	1.69978e-22	1.94609e-08	7.47009e-12	-3.68236e-09
80	3.0499e-08	5.5194e-10	4.39425e-09	5.82547e-08	5.52041e-09	5.38138e-11	1.44919e-07	6.50206e-10	4.41478e-11	1.43109e-43	5.37266e-10	2.5658e-45	5.64646e-12	1.39999e-06	1.44069e-21	-1.77124e-23	1.94627e-08	6.14956e-12	-3.85911e-09
81	2.98484e-08	5.4187e-10	4.40808e-09	5.89153e-08	5.11801e-09	5.00484e-11	1.45326e-07	6.53266e-10	4.11257e-11	1.20024e-42	5.3565e-10	3.05866e-44	5.60838e-12	1.39999e-06	7.76309e-22	-1.60773e-22	1.94644e-08	5.06162e-12	-4.0432e-09
82	2.92101e-08	5.31907e-10	4.42156e-09	5.95635e-08	4.74339e-09	4.65279e-11	1.45706e-07	6.56143e-10	3.82862e-11	-7.55284e-43	5.34568e-10	-1.86139e-44	5.57074e-12	1.4e-06	-6.6337e-23	1.3457e-22	1.94654e-08	4.16576e-12	-4.23493e-09
83	2.85841e-08	5.22057e-10	4.43471e-09	6.01994e-08	4.39485e-09	4.32377e-11	1.4606e-07	6.58845e-10	3.56215e-11	-1.11915e-42	5.33341e-10	-2.94737e-44	5.53356e-12	1.4e-06	-1.80489e-22	1.43228e-22	1.94667e-08	3.42844e-12	-4.43459e-09
84	2.79702e-08	5.12323e-10	4.44751e-09	6.0823e-08	4.07074e-09	4.01644e-11	1.46388e-07	6.61379e-10	3.31237e-11	7.97468e-43	5.3193e-10	1.94411e-44	5.49686e-12	1.4e-06	1.73342e-22	-1.49054e-22	1.94681e-08	2.82172e-12	-4.64251e-09
85	2.73682e-08	5.02706e-10	4.46e-09	6.14346e-08	3.76951e-09	3.72972e-11	1.46693e-07	6.63755e-10	3.07847e-11	9.91912e-45	5.30933e-10	1.74639e-46	5.46065e-12	1.4e-06	2.08553e-22	8.2018e-24	1.94691e-08	2.32234e-12	-4.85901e-09
