Time	[V]	[h1]	[x1]	[n1]	[c]
0	-55	0.9	0.27	0.03	0.4
1	-54.9918	0.900075	0.270216	0.0300151	0.400014
2	-54.9835	0.900148	0.270433	0.0300303	0.400029
3	-54.9753	0.900218	0.27065	0.0300457	0.400043
4	-54.967	0.900286	0.270867	0.0300613	0.400058
5	-54.9587	0.900351	0.271084	0.0300771	0.400073
6	-54.9503	0.900415	0.271302	0.030093	0.400087
7	-54.942	0.900476	0.271519	0.0301092	0.400102
8	-54.9336	0.900535	0.271737	0.0301255	0.400117
9	-54.9252	0.900592	0.271956	0.030142	0.400132
10	-54.9168	0.900646	0.272174	0.0301586	0.400147
11	-54.9083	0.900699	0.272393	0.0301754	0.400163
12	-54.8999	0.900749	0.272612	0.0301924	0.400178
13	-54.8914	0.900797	0.272831	0.0302096	0.400194
14	-54.8829	0.900843	0.273051	0.0302269	0.400209
15	-54.8744	0.900887	0.27327	0.0302445	0.400225
16	-54.8658	0.900929	0.27349	0.0302621	0.400241
17	-54.8573	0.900969	0.273711	0.03028	0.400257
18	-54.8487	0.901006	0.273931	0.030298	0.400273
19	-54.8401	0.901042	0.274152	0.0303161	0.400289
20	-54.8315	0.901076	0.274373	0.0303345	0.400305
21	-54.8228	0.901108	0.274594	0.0303529	0.400321
22	-54.8142	0.901137	0.274816	0.0303716	0.400337
23	-54.8055	0.901165	0.275038	0.0303904	0.400354
24	-54.7968	0.901191	0.27526	0.0304093	0.40037
25	-54.7881	0.901216	0.275482	0.0304284	0.400387
26	-54.7794	0.901238	0.275705	0.0304477	0.400404
27	-54.7706	0.901259	0.275928	0.0304671	0.400421
28	-54.7619	0.901277	0.276151	0.0304867	0.400438
29	-54.7531	0.901294	0.276375	0.0305064	0.400455
30	-54.7443	0.901309	0.276599	0.0305263	0.400472
31	-54.7355	0.901323	0.276823	0.0305463	0.400489
32	-54.7266	0.901334	0.277047	0.0305664	0.400507
33	-54.7178	0.901344	0.277272	0.0305867	0.400524
34	-54.7089	0.901352	0.277497	0.0306072	0.400542
35	-54.7001	0.901358	0.277722	0.0306278	0.400559
36	-54.6912	0.901363	0.277948	0.0306485	0.400577
37	-54.6823	0.901366	0.278174	0.0306694	0.400595
38	-54.6733	0.901367	0.2784	0.0306904	0.400613
39	-54.6644	0.901367	0.278626	0.0307116	0.400631
40	-54.6554	0.901365	0.278853	0.0307329	0.400649
41	-54.6465	0.901361	0.27908	0.0307543	0.400667
42	-54.6375	0.901356	0.279308	0.0307759	0.400686
43	-54.6285	0.901349	0.279535	0.0307976	0.400704
44	-54.6194	0.901341	0.279763	0.0308195	0.400723
45	-54.6104	0.901331	0.279992	0.0308415	0.400741
46	-54.6014	0.901319	0.28022	0.0308636	0.40076
47	-54.5923	0.901306	0.280449	0.0308858	0.400779
48	-54.5832	0.901292	0.280679	0.0309082	0.400798
49	-54.5741	0.901276	0.280908	0.0309307	0.400817
50	-54.565	0.901258	0.281138	0.0309534	0.400836
51	-54.5559	0.901239	0.281368	0.0309762	0.400856
52	-54.5467	0.901218	0.281599	0.0309991	0.400875
53	-54.5376	0.901196	0.28183	0.0310221	0.400895
54	-54.5284	0.901173	0.282061	0.0310452	0.400914
55	-54.5192	0.901148	0.282292	0.0310685	0.400934
56	-54.5101	0.901122	0.282524	0.0310919	0.400954
57	-54.5008	0.901094	0.282756	0.0311155	0.400974
58	-54.4916	0.901065	0.282989	0.0311391	0.400994
59	-54.4824	0.901035	0.283222	0.0311629	0.401014
60	-54.4731	0.901003	0.283455	0.0311868	0.401034
61	-54.4639	0.90097	0.283688	0.0312108	0.401054
62	-54.4546	0.900935	0.283922	0.031235	0.401075
63	-54.4453	0.9009	0.284156	0.0312592	0.401095
64	-54.436	0.900863	0.284391	0.0312836	0.401116
65	-54.4267	0.900824	0.284625	0.0313081	0.401136
66	-54.4173	0.900784	0.284861	0.0313327	0.401157
67	-54.408	0.900743	0.285096	0.0313575	0.401178
68	-54.3986	0.900701	0.285332	0.0313823	0.401199
69	-54.3893	0.900657	0.285568	0.0314073	0.40122
70	-54.3799	0.900613	0.285805	0.0314324	0.401242
71	-54.3705	0.900567	0.286041	0.0314576	0.401263
72	-54.3611	0.900519	0.286278	0.0314829	0.401284
73	-54.3516	0.900471	0.286516	0.0315083	0.401306
74	-54.3422	0.900421	0.286754	0.0315338	0.401328
75	-54.3328	0.90037	0.286992	0.0315595	0.401349
76	-54.3233	0.900318	0.287231	0.0315853	0.401371
77	-54.3138	0.900265	0.287469	0.0316111	0.401393
78	-54.3043	0.90021	0.287709	0.0316371	0.401415
79	-54.2948	0.900154	0.287948	0.0316632	0.401437
80	-54.2853	0.900098	0.288188	0.0316894	0.40146
81	-54.2758	0.90004	0.288429	0.0317157	0.401482
82	-54.2662	0.89998	0.288669	0.0317421	0.401505
83	-54.2567	0.89992	0.28891	0.0317687	0.401527
84	-54.2471	0.899859	0.289152	0.0317953	0.40155
85	-54.2375	0.899796	0.289393	0.0318221	0.401573
86	-54.2279	0.899733	0.289635	0.0318489	0.401596
87	-54.2183	0.899668	0.289878	0.0318759	0.401619
88	-54.2087	0.899602	0.29012	0.0319029	0.401642
89	-54.1991	0.899535	0.290364	0.0319301	0.401665
90	-54.1894	0.899467	0.290607	0.0319574	0.401688
91	-54.1798	0.899398	0.290851	0.0319847	0.401712
92	-54.1701	0.899328	0.291095	0.0320122	0.401735
93	-54.1604	0.899257	0.29134	0.0320398	0.401759
94	-54.1507	0.899185	0.291585	0.0320675	0.401783
95	-54.141	0.899112	0.29183	0.0320953	0.401807
96	-54.1313	0.899038	0.292076	0.0321231	0.401831
97	-54.1216	0.898963	0.292322	0.0321511	0.401855
98	-54.1118	0.898886	0.292568	0.0321792	0.401879
99	-54.1021	0.898809	0.292815	0.0322074	0.401903
100	-54.0923	0.898731	0.293062	0.0322357	0.401928
