Time	[MP]	[CN]	[C]	[T2]	[T1]	[T0]	[MT]	[P0]	[P1]	[P2]
0	0.0614368	1.34728	0.207614	0.0145428	0.0213384	0.0217261	0.0860342	0.0169928	0.0141356	0.0614368
1	0.0861752	1.23421	0.187809	0.0143516	0.0244933	0.0275746	0.117672	0.0202711	0.0188609	0.0175736
2	0.120869	1.12969	0.171403	0.0161642	0.0337022	0.038995	0.167536	0.0282625	0.0253441	0.018998
3	0.168292	1.03385	0.156825	0.0194713	0.047751	0.0558877	0.238662	0.0395342	0.0348909	0.021801
4	0.231414	0.94619	0.143647	0.0246179	0.0677278	0.0797472	0.336382	0.0548447	0.0479759	0.0261512
5	0.312692	0.866099	0.131742	0.0321954	0.0951645	0.11237	0.465384	0.0750643	0.0653819	0.0324693
6	0.413286	0.793056	0.121093	0.0429209	0.131495	0.155374	0.62798	0.100897	0.0877926	0.0412463
7	0.53253	0.726653	0.111772	0.0576086	0.177768	0.209917	0.823268	0.132705	0.115621	0.0529977
8	0.667947	0.666653	0.103969	0.077197	0.234558	0.276617	1.04744	0.17043	0.148925	0.0682361
9	0.815765	0.613058	0.0980352	0.102826	0.302046	0.355651	1.29484	0.213623	0.18742	0.0874567
10	0.971651	0.566208	0.0945631	0.135948	0.380196	0.446933	1.55921	0.261556	0.230567	0.111123
11	1.1313	0.526926	0.0944904	0.178453	0.468929	0.550278	1.8345	0.313334	0.277678	0.139622
12	1.29076	0.49673	0.0992375	0.232749	0.56823	0.665477	2.11531	0.367974	0.327974	0.173146
13	1.44634	0.478098	0.110848	0.301745	0.678162	0.792287	2.39681	0.424397	0.380579	0.211471
14	1.59414	0.47477	0.132044	0.388622	0.798744	0.930232	2.67423	0.481299	0.434402	0.253607
15	1.72882	0.491943	0.166018	0.496329	0.929617	1.07811	2.9417	0.536786	0.487856	0.297376
16	1.84095	0.536094	0.215681	0.626868	1.06933	1.23278	3.18964	0.587522	0.538263	0.339013
17	1.91124	0.614012	0.282103	0.780611	1.21386	1.38633	3.39939	0.626814	0.58056	0.372761
18	1.90182	0.730492	0.361861	0.955896	1.35377	1.52055	3.53472	0.641239	0.60475	0.390136
19	1.75571	0.884036	0.442961	1.14904	1.46971	1.60064	3.54049	0.608723	0.592856	0.37889
20	1.43359	1.06017	0.500685	1.35424	1.53021	1.58204	3.37402	0.509714	0.522438	0.325378
21	0.970537	1.22546	0.502293	1.55731	1.50089	1.44351	3.05171	0.353996	0.387635	0.229394
22	0.480826	1.33431	0.435265	1.70807	1.36627	1.21427	2.63742	0.187066	0.222438	0.12395
23	0.151347	1.35873	0.336008	1.69132	1.14659	0.955217	2.19642	0.0665754	0.0883697	0.0523297
24	0.0790421	1.31212	0.257012	1.38486	0.89052	0.718923	1.77781	0.025111	0.0304429	0.0239217
25	0.0903071	1.23053	0.211582	0.805755	0.643359	0.530074	1.41655	0.0223527	0.0217416	0.0185306
26	0.119178	1.13885	0.18302	0.272876	0.433256	0.391858	1.13647	0.0283083	0.0257727	0.0193166
27	0.161924	1.04724	0.162853	0.124244	0.305404	0.302737	0.952263	0.0382558	0.0340087	0.0215957
28	0.22063	0.960579	0.147827	0.0913876	0.247479	0.258012	0.867314	0.05236	0.0459628	0.0254187
29	0.297338	0.880509	0.135298	0.0807	0.22838	0.247707	0.873102	0.0713182	0.0622256	0.0312102
30	0.393179	0.807203	0.12442	0.0817784	0.23642	0.264318	0.954452	0.0957708	0.0833967	0.0393686
31	0.507696	0.740495	0.115051	0.0916239	0.265523	0.302789	1.09545	0.126093	0.109882	0.0503567
32	0.638665	0.680262	0.10733	0.109373	0.311922	0.359781	1.28205	0.16227	0.141769	0.0646464
33	0.782482	0.626586	0.101614	0.135318	0.373252	0.433118	1.50235	0.203896	0.178805	0.0826838
34	0.934837	0.579888	0.0985269	0.170592	0.448026	0.521344	1.74631	0.250257	0.22046	0.10486
35	1.09132	0.541086	0.0990586	0.217074	0.53533	0.623445	2.00556	0.300443	0.266026	0.131458
36	1.24773	0.511817	0.104695	0.277348	0.634647	0.738669	2.27313	0.353417	0.314669	0.162525
37	1.40003	0.494704	0.11754	0.354585	0.745693	0.866342	2.54298	0.408002	0.365418	0.197657
38	1.54375	0.493631	0.140317	0.452196	0.86817	1.00555	2.8093	0.462724	0.417034	0.23567
39	1.67262	0.51386	0.176061	0.573216	1.00131	1.15446	3.06492	0.515391	0.467697	0.274235
40	1.7755	0.561703	0.227218	0.719525	1.14301	1.30888	3.29841	0.562128	0.51433	0.309535
41	1.83048	0.643317	0.293935	0.891217	1.28819	1.45901	3.48831	0.595353	0.551198	0.335906
42	1.7973	0.762097	0.37126	1.08636	1.4257	1.5838	3.59577	0.600739	0.567401	0.34518
43	1.62284	0.914106	0.445205	1.30123	1.53428	1.64652	3.56829	0.55731	0.544929	0.326292
44	1.28236	1.08168	0.490138	1.52947	1.582	1.6061	3.37478	0.451368	0.465077	0.269568
45	0.82591	1.22982	0.477677	1.75201	1.53728	1.4502	3.0414	0.299655	0.330034	0.181608
46	0.37792	1.31738	0.405579	1.90671	1.38972	1.21413	2.63099	0.148522	0.17844	0.094991
47	0.124447	1.32568	0.313371	1.87243	1.164	0.957632	2.20382	0.0516208	0.06772	0.040782
48	0.0852544	1.2731	0.245023	1.53673	0.90975	0.728646	1.80532	0.0245379	0.0274712	0.0214411
49	0.101763	1.19282	0.205606	0.924673	0.669279	0.548117	1.46732	0.0248555	0.0235159	0.0184941
50	0.134026	1.10484	0.178908	0.328715	0.463719	0.417258	1.21063	0.0318702	0.0287894	0.0200511
51	0.180884	1.01679	0.158892	0.139799	0.334472	0.333448	1.04738	0.0428762	0.0379916	0.0228619
52	0.244706	0.933114	0.144119	0.104646	0.279078	0.293192	0.97955	0.0583196	0.0511121	0.0272006
53	0.327205	0.855722	0.132013	0.0945918	0.263405	0.28702	0.998521	0.0788964	0.0688008	0.0336578
54	0.428899	0.784927	0.121647	0.0970072	0.274806	0.307617	1.08994	0.105141	0.0915815	0.0426403
55	0.548661	0.720658	0.112889	0.108851	0.307342	0.35019	1.23859	0.137279	0.119734	0.0545962
56	0.683713	0.662897	0.105935	0.129396	0.357387	0.41152	1.43067	0.175144	0.153212	0.0699727
57	0.830123	0.611866	0.101238	0.159127	0.422618	0.489429	1.65436	0.218206	0.191649	0.0891796
58	0.983473	0.568184	0.0995629	0.199429	0.501553	0.582419	1.89971	0.265662	0.234434	0.112549
59	1.13937	0.53305	0.102092	0.25249	0.593286	0.689424	2.15846	0.316539	0.280794	0.140256
60	1.29361	0.50849	0.110558	0.321214	0.697293	0.809611	2.42373	0.369731	0.329828	0.172159
61	1.44196	0.49763	0.127327	0.408995	0.813225	0.94213	2.68937	0.423934	0.380448	0.20754
62	1.57925	0.504923	0.15528	0.519228	0.940559	1.08566	2.94893	0.477397	0.431184	0.244766
63	1.69743	0.536095	0.197272	0.654573	1.07798	1.23744	3.19361	0.527314	0.479746	0.280941
64	1.78144	0.59748	0.254903	0.816199	1.22222	1.39117	3.40826	0.568478	0.522095	0.3116
65	1.80216	0.694258	0.32637	1.00332	1.36587	1.53276	3.56456	0.590779	0.550609	0.330277
66	1.71219	0.827062	0.403191	1.2132	1.49378	1.63437	3.61638	0.576779	0.551492	0.327832
67	1.46551	0.986562	0.466397	1.44134	1.57971	1.65496	3.51602	0.506701	0.505364	0.293425
68	1.06815	1.14754	0.487559	1.67797	1.59017	1.5624	3.25656	0.378625	0.400404	0.223039
69	0.604017	1.27046	0.446746	1.8891	1.50052	1.36544	2.8848	0.223991	0.254848	0.134995
70	0.228283	1.3216	0.361188	1.98492	1.31492	1.11403	2.46469	0.0941893	0.118253	0.0639851
71	0.0943942	1.29925	0.277692	1.83543	1.07144	0.865813	2.0496	0.0334806	0.0420748	0.0284084
72	0.0922215	1.23196	0.2248	1.36987	0.820629	0.657166	1.67843	0.0238204	0.0240675	0.0190982
73	0.11686	1.14824	0.193084	0.698872	0.593826	0.49892	1.37739	0.0280677	0.0258019	0.0189712
74	0.155612	1.06084	0.169279	0.224434	0.412458	0.388453	1.16292	0.0369437	0.0330379	0.0213507
75	0.210137	0.975113	0.151637	0.125867	0.316715	0.323909	1.043	0.0499352	0.043996	0.0247971
76	0.282668	0.894638	0.138185	0.10347	0.280051	0.299281	1.015	0.0677304	0.0591973	0.0300843
77	0.374356	0.820586	0.126941	0.0991727	0.276869	0.30546	1.06749	0.0909628	0.0792604	0.0376911
78	0.48491	0.75308	0.117365	0.105971	0.298071	0.336316	1.18554	0.12002	0.104593	0.0480392
79	0.612342	0.692072	0.109485	0.12198	0.338847	0.387794	1.35449	0.154933	0.135313	0.0615739
80	0.753221	0.63766	0.103621	0.147056	0.396176	0.457149	1.56137	0.195343	0.171205	0.078721
81	0.903293	0.590254	0.100374	0.182125	0.468112	0.542498	1.79512	0.240569	0.211768	0.0998502
82	1.05809	0.550751	0.100707	0.228985	0.553426	0.642523	2.04654	0.289711	0.256298	0.125218
83	1.21331	0.520745	0.106074	0.290219	0.651386	0.756251	2.308	0.341723	0.303954	0.154851
84	1.36474	0.502799	0.118528	0.369046	0.761552	0.882836	2.57297	0.395406	0.353742	0.188338
85	1.50779	0.500704	0.140729	0.468959	0.883507	1.02122	2.83523	0.449259	0.404405	0.224527
86	1.63607	0.519595	0.17563	0.593086	1.01638	1.16946	3.08735	0.501079	0.454109	0.261175
87	1.73853	0.565621	0.225605	0.743397	1.15801	1.32326	3.31781	0.547025	0.499803	0.29463
88	1.79373	0.64477	0.290768	0.920066	1.30326	1.47289	3.50551	0.57971	0.53587	0.319505
89	1.76285	0.760318	0.366271	1.12126	1.44117	1.59769	3.61278	0.585362	0.551788	0.328094
90	1.59472	0.908409	0.438545	1.34338	1.55099	1.66189	3.58882	0.543949	0.530346	0.310116
91	1.26462	1.07194	0.482917	1.58021	1.60155	1.62511	3.40251	0.442173	0.453714	0.256792
92	0.819681	1.21719	0.472128	1.81299	1.5615	1.4739	3.07745	0.295483	0.323723	0.174383
93	0.380855	1.30438	0.40343	1.98131	1.41928	1.24122	2.67423	0.14827	0.176919	0.0926624
94	0.129227	1.31465	0.313734	1.96704	1.19756	0.985532	2.2525	0.0528335	0.0685885	0.0405847
95	0.0880623	1.26473	0.246016	1.65509	0.945003	0.755377	1.85778	0.0253883	0.0283207	0.0215199
96	0.104099	1.18679	0.206696	1.05361	0.704993	0.572987	1.52195	0.02549	0.0241091	0.0185074
97	0.136261	1.10077	0.179982	0.408557	0.497142	0.440206	1.26556	0.0324602	0.0293215	0.0201143
98	0.183057	1.01402	0.159288	0.155697	0.357219	0.353681	1.10069	0.0434522	0.0385213	0.0230516
99	0.246964	0.930987	0.144143	0.112928	0.296611	0.311017	1.03	0.0589134	0.0516512	0.027396
100	0.329674	0.853983	0.131975	0.101312	0.278868	0.303343	1.04582	0.0795491	0.0693842	0.0338719
