Time	[d]	[ad]	[e]	[r]	[rs]	[x]	[ip3]	[kg]	[gstar]	[ro]	[ip3con]	[dcon]	[atp]	[y]	[delta]	[ca]
0	0	0.41	1	0	0	0	0	8.82353	0.00135417	0	0.0831727	0	0	0	0.0119647	0.0159835
1	0.0774726	0.41	1.33979	0.037147	0.012529	0.259494	0.013	8.82353	0.00135417	0	0.549834	0	0	500	0.0119647	0.0159835
2	0.116306	0.41	1.60961	0.0909732	0.064167	0.410743	0.013	8.82353	0.00135417	0	0.549834	0	0	500	0.0119647	0.0159835
3	0.129191	0.41	1.80731	0.140167	0.146614	0.539767	0.013	8.82353	0.00135417	0	0.549834	0	0	500	0.0119647	0.0159835
4	0.129898	0.41	1.9261	0.188372	0.248325	0.686888	0.013	8.82353	0.00135417	0	0.549834	0	0	500	0.0119647	0.0159835
5	0.127766	0.41	1.95189	0.243593	0.363975	0.903952	0.013	8.82353	0.00135417	0	0.549834	0	0	500	0.0119647	0.0159835
6	0.128288	0.41	1.84819	0.318931	0.493567	1.35581	0.013	8.82353	0.00135417	0	0.549834	0	0	500	0.0119647	0.0159835
7	0.137356	0.41	1.46005	0.448089	0.643776	3.44529	0.013	8.82353	0.00135417	0	0.549834	0	0	500	0.0119647	0.0159835
8	0.194388	0.41	0.0110006	0.679684	0.841226	116.649	0.013	8.82353	0.00135417	0	0.549834	0	0	500	0.0119647	0.0159835
9	0.291381	0.41	0.0144341	0.808685	1.03012	77.1693	0.013	8.82353	0.00135417	0	0.549834	0	0	500	0.0119647	0.0159835
10	0.387202	0.41	0.0211488	0.868698	1.14621	47.7701	0.013	8.82353	0.00135417	1.93311e-10	0.549834	1.59391e-10	4.83277e-09	500	0.0119647	0.0159835
11	0.488625	0.693788	0.0331046	0.900139	1.20398	28.2489	0.943471	8.82353	0.0982861	0.949793	1	0.0932167	472.937	477.607	0.0119647	0.299771
12	0.645101	0.694006	0.0538756	0.915649	1.21843	16.121	0.943973	8.82353	0.0983305	0.950275	1	1	477.761	478.187	0.0119647	0.299989
13	0.79106	0.694006	0.0888772	0.918766	1.20641	8.88362	0.943973	8.82353	0.0983305	0.950275	1	1	477.761	478.187	0.0119647	0.299989
14	0.91769	0.694006	0.145221	0.908982	1.1819	4.68787	0.943973	8.82353	0.0983305	0.950275	1	1	477.761	478.187	0.0119647	0.299989
15	1.01195	0.694006	0.230525	0.881712	1.1521	2.34853	0.943973	8.82353	0.0983305	0.950275	1	1	477.761	478.187	0.0119647	0.299989
16	1.05857	0.694006	0.349519	0.828629	1.11961	1.12867	0.943973	8.82353	0.0983305	0.950275	1	1	477.761	478.187	0.0119647	0.299989
17	1.04612	0.694006	0.500489	0.744598	1.0841	0.551682	0.943973	8.82353	0.0983305	0.950275	1	1	477.761	478.187	0.0119647	0.299989
18	0.974707	0.694006	0.675555	0.638248	1.04463	0.309746	0.943973	8.82353	0.0983305	0.950275	1	1	477.761	478.187	0.0119647	0.299989
19	0.858721	0.694006	0.864621	0.528455	1.00189	0.224529	0.943973	8.82353	0.0983305	0.950275	1	1	477.761	478.186	0.0119647	0.299989
20	0.721656	0.694006	1.05869	0.431122	0.958447	0.207385	0.943973	8.82353	0.0983305	0.950275	1	1	477.761	478.187	0.0119647	0.299989
21	0.586921	0.694006	1.2507	0.353991	0.917417	0.219385	0.943973	8.82353	0.0983305	0.950275	1	1	477.761	478.187	0.0119647	0.299989
22	0.470656	0.689294	1.43503	0.298475	0.881409	0.244664	0.933544	8.82353	0.0971458	0.937434	1	0.00281812	374.581	484.069	0.0119647	0.295277
23	0.33325	0.41	1.60678	0.262674	0.855811	0.27688	0.013	8.82353	0.00135417	2.59367e-15	0.549834	3.27516e-15	6.48417e-14	500	0.0119647	0.0159835
24	0.240886	0.41	1.76111	0.243627	0.84382	0.313014	0.013	8.82353	0.00135417	4.45008e-19	0.549834	0	1.11252e-17	500	0.0119647	0.0159835
25	0.185218	0.41	1.89414	0.2377	0.841768	0.352281	0.013	8.82353	0.00135417	2.85209e-21	0.549834	0	7.13023e-20	500	0.0119647	0.0159835
26	0.152826	0.41	2.00288	0.241657	0.847181	0.395132	0.013	8.82353	0.00135417	1.00594e-21	0.549834	0	2.51484e-20	500	0.0119647	0.0159835
27	0.134297	0.41	2.08482	0.253147	0.858627	0.442672	0.013	8.82353	0.00135417	-2.20322e-21	0.549834	0	-5.50805e-20	500	0.0119647	0.0159835
28	0.123831	0.41	2.13771	0.270707	0.875349	0.49658	0.013	8.82353	0.00135417	-2.72101e-20	0.549834	0	-6.80254e-19	500	0.0119647	0.0159835
29	0.118191	0.41	2.15936	0.293614	0.89692	0.559358	0.013	8.82353	0.00135417	-5.15941e-20	0.549834	0	-1.28985e-18	500	0.0119647	0.0159835
30	0.115719	0.41	2.14742	0.321741	0.923018	0.634975	0.013	8.82353	0.00135417	2.38113e-19	0.549834	0	5.95283e-18	500	0.0119647	0.0159835
31	0.115683	0.41	2.099	0.355493	0.95332	0.730335	0.013	8.82353	0.00135417	-1.64614e-19	0.549834	0	-4.11535e-18	500	0.0119647	0.0159835
32	0.117911	0.41	2.00992	0.395839	0.987487	0.858913	0.013	8.82353	0.00135417	5.27684e-20	0.549834	0	1.31921e-18	500	0.0119647	0.0159835
33	0.122697	0.41	1.8727	0.444548	1.0252	1.05136	0.013	8.82353	0.00135417	-2.01599e-19	0.549834	0	-5.03998e-18	500	0.0119647	0.0159835
34	0.130987	0.41	1.67128	0.504814	1.06629	1.39456	0.013	8.82353	0.00135417	7.22345e-20	0.549834	0	1.80586e-18	500	0.0119647	0.0159835
35	0.145275	0.41	1.36239	0.582594	1.11104	2.24222	0.013	8.82353	0.00135417	3.18663e-19	0.549834	0	7.96658e-18	500	0.0119647	0.0159835
36	0.173896	0.41	0.789783	0.686538	1.16133	6.61619	0.013	8.82353	0.00135417	5.67567e-19	0.549834	0	1.41892e-17	500	0.0119647	0.0159835
37	0.245207	0.41	0.0592885	0.796285	1.22255	27.7891	0.013	8.82353	0.00135417	-1.67196e-20	0.549834	0	-4.1799e-19	500	0.0119647	0.0159835
38	0.338105	0.41	0.0504504	0.861472	1.26457	16.9323	0.013	8.82353	0.00135417	1.06487e-14	0.549834	8.65974e-15	2.66219e-13	500	0.0119647	0.0159835
39	0.426294	0.41	0.0822142	0.894177	1.27683	9.19148	0.0130005	8.82353	0.00135422	4.87183e-07	0.549858	3.96218e-07	1.21796e-05	500	0.0119647	0.0159835
40	0.53602	0.694006	0.134778	0.90506	1.26886	4.73946	0.943973	8.82353	0.0983305	0.950275	1	0.999257	477.761	478.186	0.0119647	0.299989
41	0.660458	0.694006	0.215815	0.894872	1.24281	2.30758	0.943973	8.82353	0.0983305	0.950275	1	1	477.761	478.187	0.0119647	0.299989
42	0.749767	0.694006	0.330276	0.857567	1.20777	1.07359	0.943973	8.82353	0.0983305	0.950275	1	1	477.761	478.187	0.0119647	0.299989
43	0.791528	0.694006	0.476292	0.787773	1.16863	0.50652	0.943973	8.82353	0.0983305	0.950275	1	1	477.761	478.186	0.0119647	0.299989
44	0.780903	0.694006	0.645956	0.691803	1.12679	0.275343	0.943973	8.82353	0.0983305	0.950275	1	1	477.761	478.187	0.0119647	0.299989
45	0.724641	0.694006	0.829473	0.586671	1.08313	0.196383	0.943973	8.82353	0.0983305	0.950275	1	1	477.761	478.187	0.0119647	0.299989
46	0.638896	0.694006	1.01839	0.488214	1.03933	0.181678	0.943973	8.82353	0.0983305	0.950275	1	1	477.761	478.187	0.0119647	0.299989
47	0.542739	0.694006	1.20629	0.40546	0.997414	0.19374	0.943973	8.82353	0.0983305	0.950275	1	0.999806	477.761	478.187	0.0119647	0.299989
48	0.444989	0.41	1.38817	0.341605	0.959229	0.217672	0.0138362	8.82353	0.00139321	0.00034541	0.590791	1.66643e-05	0.00863824	499.999	0.0119647	0.0159835
49	0.320443	0.41	1.5596	0.296582	0.931599	0.247448	0.013	8.82353	0.00135417	1.16282e-15	0.549834	2.77556e-16	2.90706e-14	500	0.0119647	0.0159835
50	0.237994	0.41	1.71622	0.268656	0.915183	0.28024	0.013	8.82353	0.00135417	3.95947e-19	0.549834	0	9.89868e-18	500	0.0119647	0.0159835
51	0.186295	0.41	1.85467	0.254687	0.906701	0.315409	0.013	8.82353	0.00135417	-2.25824e-17	0.549834	0	-5.64561e-16	500	0.0119647	0.0159835
52	0.154935	0.41	1.97229	0.251536	0.904219	0.353302	0.013	8.82353	0.00135417	-6.16193e-16	0.549834	0	-1.54048e-14	500	0.0119647	0.0159835
53	0.136161	0.41	2.06681	0.256697	0.906789	0.394708	0.013	8.82353	0.00135417	-3.19467e-15	0.549834	0	-7.98667e-14	500	0.0119647	0.0159835
54	0.124948	0.41	2.13615	0.268415	0.914053	0.440739	0.013	8.82353	0.00135417	-1.87886e-14	0.549834	0	-4.69715e-13	500	0.0119647	0.0159835
55	0.118348	0.41	2.17831	0.285609	0.925902	0.492913	0.013	8.82353	0.00135417	-1.00287e-15	0.549834	0	-2.50717e-14	500	0.0119647	0.0159835
56	0.114766	0.41	2.19133	0.307751	0.94226	0.553421	0.013	8.82353	0.00135417	-2.40724e-18	0.549834	0	-6.01809e-17	500	0.0119647	0.0159835
57	0.113413	0.41	2.17312	0.334766	0.962977	0.625656	0.013	8.82353	0.00135417	-4.87274e-20	0.549834	0	-1.21819e-18	500	0.0119647	0.0159835
58	0.113978	0.41	2.12123	0.366978	0.98781	0.715331	0.013	8.82353	0.00135417	5.12909e-19	0.549834	0	1.28227e-17	500	0.0119647	0.0159835
59	0.11647	0.41	2.03232	0.40513	1.01643	0.833063	0.013	8.82353	0.00135417	-4.69237e-19	0.549834	0	-1.17309e-17	500	0.0119647	0.0159835
60	0.121204	0.41	1.90085	0.450519	1.0485	1.00134	0.013	8.82353	0.00135417	-8.71171e-20	0.549834	0	-2.17793e-18	500	0.0119647	0.0159835
61	0.128951	0.41	1.71582	0.505355	1.0837	1.27716	0.013	8.82353	0.00135417	2.14589e-20	0.549834	0	5.36473e-19	500	0.0119647	0.0159835
62	0.1415	0.41	1.45092	0.57352	1.12198	1.85056	0.013	8.82353	0.00135417	-1.28986e-21	0.549834	0	-3.22465e-20	500	0.0119647	0.0159835
63	0.163762	0.41	1.02803	0.66115	1.16403	3.74686	0.013	8.82353	0.00135417	9.95471e-25	0.549834	0	2.48868e-23	500	0.0119647	0.0159835
64	0.213253	0.41	0.276468	0.765797	1.21343	16.8527	0.013	8.82353	0.00135417	7.67976e-27	0.549834	0	1.91994e-25	500	0.0119647	0.0159835
65	0.30139	0.41	0.0527117	0.843989	1.26092	18.1695	0.013	8.82353	0.00135417	-7.26505e-29	0.549834	0	-1.81626e-27	500	0.0119647	0.0159835
66	0.390902	0.41	0.0768453	0.885124	1.27986	10.0605	0.013	8.82353	0.00135417	4.09567e-10	0.549834	3.34077e-10	1.02392e-08	500	0.0119647	0.0159835
67	0.474166	0.681944	0.125379	0.901794	1.27713	5.22715	0.918826	8.82353	0.0962991	0.928278	1	0.00567013	323.569	460.35	0.0119647	0.287928
68	0.605181	0.694006	0.201348	0.897248	1.25619	2.56118	0.943973	8.82353	0.0983305	0.950275	1	1	477.761	478.187	0.0119647	0.299989
69	0.704469	0.694006	0.31032	0.866582	1.22292	1.19328	0.943973	8.82353	0.0983305	0.950275	1	1	477.761	478.187	0.0119647	0.299989
70	0.759053	0.694006	0.451503	0.803622	1.18426	0.556248	0.943973	8.82353	0.0983305	0.950275	1	1	477.761	478.187	0.0119647	0.299989
71	0.76223	0.694006	0.617647	0.71231	1.14258	0.292295	0.943973	8.82353	0.0983305	0.950275	1	1	477.761	478.186	0.0119647	0.299989
72	0.718287	0.694006	0.799008	0.608497	1.09898	0.199284	0.943973	8.82353	0.0983305	0.950275	1	1	477.761	478.187	0.0119647	0.299989
73	0.641524	0.694006	0.986904	0.50868	1.05503	0.178736	0.943973	8.82353	0.0983305	0.950275	1	1	477.761	478.186	0.0119647	0.299989
74	0.550438	0.694006	1.1747	0.423005	1.01265	0.188222	0.943973	8.82353	0.0983305	0.950275	1	0.999958	477.761	478.187	0.0119647	0.299989
75	0.460653	0.619727	1.35731	0.355578	0.973607	0.21079	0.832391	8.82353	0.0852131	0.809954	1	0.000382141	106.547	492.906	0.0119647	0.225711
76	0.333188	0.41	1.53034	0.306876	0.943988	0.239694	0.013	8.82353	0.00135417	7.73467e-15	0.549834	3.21965e-15	1.93367e-13	500	0.0119647	0.0159835
77	0.246919	0.41	1.6894	0.275604	0.925861	0.271753	0.013	8.82353	0.00135417	-3.39813e-18	0.549834	0	-8.49532e-17	500	0.0119647	0.0159835
78	0.192194	0.41	1.83106	0.258818	0.915779	0.306124	0.013	8.82353	0.00135417	1.01237e-17	0.549834	0	2.53092e-16	500	0.0119647	0.0159835
79	0.158706	0.41	1.95263	0.253361	0.911701	0.343057	0.013	8.82353	0.00135417	3.8816e-19	0.549834	0	9.70399e-18	500	0.0119647	0.0159835
80	0.138526	0.41	2.05183	0.256625	0.912619	0.383268	0.013	8.82353	0.00135417	6.63334e-20	0.549834	0	1.65834e-18	500	0.0119647	0.0159835
81	0.126392	0.41	2.12657	0.266731	0.918161	0.427775	0.013	8.82353	0.00135417	-8.34592e-18	0.549834	0	-2.08648e-16	500	0.0119647	0.0159835
82	0.119158	0.41	2.17487	0.282476	0.928243	0.477951	0.013	8.82353	0.00135417	-3.07886e-17	0.549834	0	-7.69716e-16	500	0.0119647	0.0159835
83	0.115091	0.41	2.19479	0.30322	0.942824	0.535738	0.013	8.82353	0.00135417	-1.61489e-17	0.549834	0	-4.03722e-16	500	0.0119647	0.0159835
84	0.113312	0.41	2.18431	0.328781	0.961795	0.604081	0.013	8.82353	0.00135417	6.46511e-17	0.549834	0	1.61628e-15	500	0.0119647	0.0159835
85	0.113446	0.41	2.14116	0.359374	0.984945	0.687803	0.013	8.82353	0.00135417	3.75364e-18	0.549834	0	9.38411e-17	500	0.0119647	0.0159835
86	0.115442	0.41	2.0624	0.395602	1.01197	0.795571	0.013	8.82353	0.00135417	-6.37667e-18	0.549834	0	-1.59417e-16	500	0.0119647	0.0159835
87	0.11953	0.41	1.94343	0.43855	1.04252	0.944902	0.013	8.82353	0.00135417	2.63104e-18	0.549834	0	6.57759e-17	500	0.0119647	0.0159835
88	0.126318	0.41	1.77565	0.490047	1.07625	1.17737	0.013	8.82353	0.00135417	-9.56644e-18	0.549834	0	-2.39161e-16	500	0.0119647	0.0159835
89	0.137175	0.41	1.53971	0.553258	1.113	1.61774	0.013	8.82353	0.00135417	-2.86397e-19	0.549834	0	-7.15993e-18	500	0.0119647	0.0159835
90	0.155565	0.41	1.18265	0.633512	1.15308	2.81862	0.013	8.82353	0.00135417	5.99109e-18	0.549834	0	1.49777e-16	500	0.0119647	0.0159835
91	0.192981	0.41	0.542846	0.734175	1.19866	9.61015	0.013	8.82353	0.00135417	-5.6249e-20	0.549834	0	-1.40622e-18	500	0.0119647	0.0159835
92	0.272178	0.41	0.0616077	0.824472	1.24983	20.5905	0.013	8.82353	0.00135417	-8.0429e-22	0.549834	0	-2.01072e-20	500	0.0119647	0.0159835
93	0.36293	0.41	0.0674435	0.875266	1.27735	11.9891	0.013	8.82353	0.00135417	1.53297e-12	0.549834	1.2424e-12	3.83243e-11	500	0.0119647	0.0159835
94	0.447005	0.41	0.109128	0.898625	1.28007	6.33306	0.0130322	8.82353	0.00135777	3.18496e-05	0.551429	2.49421e-05	0.000796265	500	0.0119647	0.0159835
95	0.565054	0.694006	0.176477	0.900656	1.2649	3.15557	0.943973	8.82353	0.0983305	0.950275	1	0.999998	477.761	478.187	0.0119647	0.299989
96	0.675289	0.694006	0.27572	0.878507	1.2344	1.48697	0.943973	8.82353	0.0983305	0.950275	1	1	477.761	478.187	0.0119647	0.299989
97	0.744354	0.694006	0.408153	0.825285	1.19694	0.686545	0.943973	8.82353	0.0983305	0.950275	1	1	477.761	478.186	0.0119647	0.299989
98	0.763075	0.694006	0.568063	0.741061	1.15599	0.343045	0.943973	8.82353	0.0983305	0.950275	1	1	477.761	478.187	0.0119647	0.299989
99	0.732339	0.694006	0.745959	0.639131	1.1128	0.215043	0.943973	8.82353	0.0983305	0.950275	1	1	477.761	478.187	0.0119647	0.299989
100	0.663927	0.694006	0.932658	0.536919	1.06875	0.179953	0.943973	8.82353	0.0983305	0.950275	1	1	477.761	478.187	0.0119647	0.299989
