Time	[Vm]	[n]	[G6P]	[FBP]	[NADHm]	[delta_psi]	[Cam]	[ADPm]	[adp]	[c]	[Caer]
0	-60	0	301	2.16	0.4	164	0.2	11.1	1137	0.17	345
1	-59.9947	7.35414e-06	301	2.16001	0.400005	163.964	0.199956	11.1	1137	0.170025	345
2	-59.9895	1.43573e-05	301	2.16001	0.400009	163.936	0.199914	11.1	1136.99	0.170049	344.999
3	-59.9844	2.10266e-05	301	2.16002	0.400013	163.915	0.199873	11.1	1136.99	0.170073	344.999
4	-59.9793	2.73781e-05	301	2.16003	0.400018	163.899	0.199834	11.1	1136.99	0.170097	344.999
5	-59.9743	3.34272e-05	301	2.16003	0.400022	163.886	0.199795	11.1	1136.99	0.170121	344.999
6	-59.9694	3.91888e-05	301	2.16004	0.400026	163.876	0.199758	11.1	1136.98	0.170145	344.998
7	-59.9645	4.46766e-05	301	2.16005	0.40003	163.869	0.199722	11.1	1136.98	0.170168	344.998
8	-59.9596	4.99039e-05	301	2.16006	0.400034	163.863	0.199687	11.1	1136.98	0.170192	344.998
9	-59.9548	5.48834e-05	301	2.16006	0.400038	163.859	0.199653	11.1	1136.98	0.170215	344.997
10	-59.9501	5.96272e-05	301	2.16007	0.400041	163.856	0.199619	11.1001	1136.98	0.170238	344.997
11	-59.9454	6.41466e-05	301	2.16008	0.400045	163.853	0.199587	11.1001	1136.97	0.170261	344.997
12	-59.9408	6.84525e-05	301	2.16008	0.400049	163.851	0.199556	11.1001	1136.97	0.170284	344.997
13	-59.9362	7.25552e-05	301	2.16009	0.400053	163.849	0.199526	11.1001	1136.97	0.170307	344.996
14	-59.9316	7.64647e-05	301	2.1601	0.400057	163.848	0.199496	11.1001	1136.97	0.170329	344.996
15	-59.9271	8.01903e-05	301	2.1601	0.400061	163.847	0.199468	11.1001	1136.96	0.170352	344.996
16	-59.9227	8.37408e-05	301	2.16011	0.400064	163.846	0.19944	11.1001	1136.96	0.170374	344.996
17	-59.9182	8.71248e-05	301	2.16012	0.400068	163.846	0.199413	11.1001	1136.96	0.170396	344.995
18	-59.9139	9.03504e-05	301	2.16012	0.400072	163.845	0.199387	11.1001	1136.96	0.170418	344.995
19	-59.9095	9.34252e-05	301	2.16013	0.400076	163.845	0.199362	11.1002	1136.95	0.17044	344.995
20	-59.9052	9.63565e-05	301.001	2.16014	0.400079	163.845	0.199338	11.1002	1136.95	0.170462	344.995
21	-59.9009	9.91513e-05	301.001	2.16015	0.400083	163.844	0.199314	11.1002	1136.95	0.170484	344.994
22	-59.8967	0.000101816	301.001	2.16015	0.400087	163.844	0.199291	11.1002	1136.95	0.170505	344.994
23	-59.8924	0.000104358	301.001	2.16016	0.400091	163.844	0.199269	11.1002	1136.94	0.170527	344.994
24	-59.8882	0.000106781	301.001	2.16017	0.400094	163.844	0.199248	11.1002	1136.94	0.170548	344.994
25	-59.8841	0.000109093	301.001	2.16017	0.400098	163.844	0.199228	11.1002	1136.94	0.170569	344.993
26	-59.88	0.000111298	301.001	2.16018	0.400102	163.844	0.199208	11.1002	1136.94	0.17059	344.993
27	-59.8759	0.000113402	301.001	2.16019	0.400106	163.843	0.199189	11.1002	1136.93	0.170611	344.993
28	-59.8718	0.000115409	301.001	2.16019	0.400109	163.843	0.199171	11.1003	1136.93	0.170632	344.993
29	-59.8678	0.000117325	301.001	2.1602	0.400113	163.843	0.199153	11.1003	1136.93	0.170652	344.993
30	-59.8637	0.000119153	301.001	2.16021	0.400117	163.843	0.199136	11.1003	1136.93	0.170673	344.992
31	-59.8598	0.000120898	301.001	2.16021	0.40012	163.843	0.19912	11.1003	1136.93	0.170693	344.992
32	-59.8558	0.000122564	301.001	2.16022	0.400124	163.843	0.199105	11.1003	1136.92	0.170714	344.992
33	-59.8518	0.000124155	301.001	2.16023	0.400128	163.843	0.19909	11.1003	1136.92	0.170734	344.992
34	-59.8479	0.000125674	301.001	2.16024	0.400132	163.843	0.199076	11.1003	1136.92	0.170754	344.991
35	-59.844	0.000127125	301.001	2.16024	0.400135	163.843	0.199063	11.1003	1136.92	0.170774	344.991
36	-59.8402	0.000128511	301.001	2.16025	0.400139	163.843	0.19905	11.1003	1136.91	0.170794	344.991
37	-59.8363	0.000129836	301.001	2.16026	0.400143	163.843	0.199038	11.1004	1136.91	0.170813	344.991
38	-59.8325	0.000131101	301.001	2.16026	0.400146	163.843	0.199027	11.1004	1136.91	0.170833	344.991
39	-59.8287	0.000132311	301.001	2.16027	0.40015	163.843	0.199016	11.1004	1136.91	0.170852	344.99
40	-59.8249	0.000133467	301.001	2.16028	0.400154	163.842	0.199006	11.1004	1136.9	0.170872	344.99
41	-59.8211	0.000134573	301.001	2.16028	0.400158	163.842	0.198997	11.1004	1136.9	0.170891	344.99
42	-59.8173	0.000135631	301.001	2.16029	0.400161	163.842	0.198988	11.1004	1136.9	0.17091	344.99
43	-59.8136	0.000136642	301.001	2.1603	0.400165	163.842	0.19898	11.1004	1136.9	0.170929	344.99
44	-59.8099	0.000137611	301.001	2.1603	0.400169	163.842	0.198972	11.1004	1136.89	0.170948	344.99
45	-59.8062	0.000138537	301.001	2.16031	0.400172	163.842	0.198965	11.1004	1136.89	0.170967	344.989
46	-59.8025	0.000139424	301.001	2.16032	0.400176	163.842	0.198958	11.1005	1136.89	0.170986	344.989
47	-59.7989	0.000140273	301.001	2.16033	0.40018	163.842	0.198953	11.1005	1136.89	0.171005	344.989
48	-59.7952	0.000141087	301.001	2.16033	0.400183	163.842	0.198947	11.1005	1136.89	0.171023	344.989
49	-59.7916	0.000141866	301.001	2.16034	0.400187	163.842	0.198942	11.1005	1136.88	0.171042	344.989
50	-59.788	0.000142613	301.001	2.16035	0.400191	163.842	0.198938	11.1005	1136.88	0.17106	344.988
51	-59.7844	0.000143329	301.001	2.16035	0.400194	163.842	0.198935	11.1005	1136.88	0.171078	344.988
52	-59.7808	0.000144016	301.001	2.16036	0.400198	163.842	0.198931	11.1005	1136.88	0.171096	344.988
53	-59.7772	0.000144675	301.001	2.16037	0.400202	163.841	0.198929	11.1005	1136.87	0.171115	344.988
54	-59.7736	0.000145307	301.001	2.16037	0.400205	163.841	0.198927	11.1005	1136.87	0.171132	344.988
55	-59.7701	0.000145913	301.001	2.16038	0.400209	163.841	0.198925	11.1006	1136.87	0.17115	344.988
56	-59.7666	0.000146496	301.001	2.16039	0.400213	163.841	0.198924	11.1006	1136.87	0.171168	344.988
57	-59.7631	0.000147055	301.001	2.16039	0.400216	163.841	0.198924	11.1006	1136.86	0.171186	344.987
58	-59.7596	0.000147593	301.001	2.1604	0.40022	163.841	0.198924	11.1006	1136.86	0.171203	344.987
59	-59.7561	0.00014811	301.002	2.16041	0.400224	163.841	0.198924	11.1006	1136.86	0.171221	344.987
60	-59.7526	0.000148607	301.002	2.16042	0.400227	163.841	0.198925	11.1006	1136.86	0.171238	344.987
61	-59.7491	0.000149085	301.002	2.16042	0.400231	163.841	0.198926	11.1006	1136.86	0.171256	344.987
62	-59.7457	0.000149545	301.002	2.16043	0.400235	163.841	0.198928	11.1006	1136.85	0.171273	344.987
63	-59.7423	0.000149988	301.002	2.16044	0.400238	163.841	0.198931	11.1006	1136.85	0.17129	344.987
64	-59.7388	0.000150414	301.002	2.16044	0.400242	163.841	0.198933	11.1007	1136.85	0.171307	344.986
65	-59.7354	0.000150826	301.002	2.16045	0.400246	163.841	0.198937	11.1007	1136.85	0.171324	344.986
66	-59.732	0.000151222	301.002	2.16046	0.400249	163.84	0.19894	11.1007	1136.84	0.171341	344.986
67	-59.7286	0.000151604	301.002	2.16046	0.400253	163.84	0.198944	11.1007	1136.84	0.171358	344.986
68	-59.7253	0.000151973	301.002	2.16047	0.400257	163.84	0.198949	11.1007	1136.84	0.171374	344.986
69	-59.7219	0.000152329	301.002	2.16048	0.40026	163.84	0.198954	11.1007	1136.84	0.171391	344.986
70	-59.7185	0.000152673	301.002	2.16048	0.400264	163.84	0.198959	11.1007	1136.83	0.171408	344.986
71	-59.7152	0.000153006	301.002	2.16049	0.400268	163.84	0.198965	11.1007	1136.83	0.171424	344.985
72	-59.7119	0.000153327	301.002	2.1605	0.400271	163.84	0.198972	11.1008	1136.83	0.17144	344.985
73	-59.7085	0.000153638	301.002	2.1605	0.400275	163.84	0.198978	11.1008	1136.83	0.171457	344.985
74	-59.7052	0.000153939	301.002	2.16051	0.400279	163.84	0.198985	11.1008	1136.83	0.171473	344.985
75	-59.7019	0.000154231	301.002	2.16052	0.400282	163.84	0.198993	11.1008	1136.82	0.171489	344.985
76	-59.6986	0.000154513	301.002	2.16053	0.400286	163.84	0.199001	11.1008	1136.82	0.171505	344.985
77	-59.6953	0.000154787	301.002	2.16053	0.40029	163.839	0.199009	11.1008	1136.82	0.171521	344.985
78	-59.6921	0.000155052	301.002	2.16054	0.400293	163.839	0.199017	11.1008	1136.82	0.171537	344.985
79	-59.6888	0.00015531	301.002	2.16055	0.400297	163.839	0.199026	11.1008	1136.81	0.171553	344.985
80	-59.6855	0.00015556	301.002	2.16055	0.400301	163.839	0.199036	11.1008	1136.81	0.171569	344.984
81	-59.6823	0.000155803	301.002	2.16056	0.400304	163.839	0.199046	11.1009	1136.81	0.171584	344.984
82	-59.6791	0.000156039	301.002	2.16057	0.400308	163.839	0.199056	11.1009	1136.81	0.1716	344.984
83	-59.6758	0.000156269	301.002	2.16057	0.400312	163.839	0.199066	11.1009	1136.8	0.171615	344.984
84	-59.6726	0.000156493	301.002	2.16058	0.400315	163.839	0.199077	11.1009	1136.8	0.171631	344.984
85	-59.6694	0.000156711	301.002	2.16059	0.400319	163.839	0.199088	11.1009	1136.8	0.171646	344.984
86	-59.6662	0.000156923	301.002	2.16059	0.400323	163.839	0.1991	11.1009	1136.8	0.171661	344.984
87	-59.663	0.00015713	301.002	2.1606	0.400326	163.839	0.199111	11.1009	1136.8	0.171677	344.984
88	-59.6598	0.000157332	301.002	2.16061	0.40033	163.839	0.199123	11.1009	1136.79	0.171692	344.984
89	-59.6567	0.000157529	301.002	2.16061	0.400334	163.838	0.199136	11.1009	1136.79	0.171707	344.984
90	-59.6535	0.000157721	301.002	2.16062	0.400337	163.838	0.199149	11.101	1136.79	0.171722	344.984
91	-59.6503	0.000157909	301.002	2.16063	0.400341	163.838	0.199162	11.101	1136.79	0.171737	344.983
92	-59.6472	0.000158093	301.002	2.16064	0.400345	163.838	0.199175	11.101	1136.78	0.171752	344.983
93	-59.6441	0.000158272	301.002	2.16064	0.400348	163.838	0.199189	11.101	1136.78	0.171767	344.983
94	-59.6409	0.000158448	301.002	2.16065	0.400352	163.838	0.199203	11.101	1136.78	0.171781	344.983
95	-59.6378	0.000158621	301.002	2.16066	0.400355	163.838	0.199217	11.101	1136.78	0.171796	344.983
96	-59.6347	0.000158789	301.002	2.16066	0.400359	163.838	0.199232	11.101	1136.78	0.171811	344.983
97	-59.6316	0.000158955	301.002	2.16067	0.400363	163.838	0.199247	11.101	1136.77	0.171825	344.983
98	-59.6285	0.000159117	301.003	2.16068	0.400366	163.838	0.199262	11.101	1136.77	0.17184	344.983
99	-59.6254	0.000159277	301.003	2.16068	0.40037	163.838	0.199278	11.1011	1136.77	0.171854	344.983
100	-59.6223	0.000159433	301.003	2.16069	0.400374	163.837	0.199293	11.1011	1136.77	0.171869	344.983
