Time	[Cytosolic Calcium]	[ER Calcium]	[Cytosolic IP3]	[Cytosolic Sodium]	[Cytosolic ATP]	[Cytosolic ADP]	Values[n]	Values[V]
0	0.085	22.8	0.33	9858	932.1	3067.9	0.00123	-60.9
1	0.0850035	22.8	0.33	9858.02	933.151	3066.85	0.00123074	-60.7948
2	0.0850083	22.8	0.33	9858.05	934.201	3065.8	0.00123292	-60.6984
3	0.0850142	22.8	0.329999	9858.07	935.251	3064.75	0.00123629	-60.6102
4	0.0850211	22.8	0.329999	9858.09	936.299	3063.7	0.00124066	-60.5294
5	0.0850291	22.8	0.329999	9858.11	937.348	3062.65	0.00124586	-60.4554
6	0.0850379	22.8	0.329999	9858.13	938.395	3061.6	0.00125172	-60.3876
7	0.0850476	22.8	0.329998	9858.15	939.442	3060.56	0.00125811	-60.3255
8	0.085058	22.8	0.329998	9858.17	940.489	3059.51	0.00126491	-60.2686
9	0.085069	22.8	0.329998	9858.19	941.534	3058.47	0.00127201	-60.2165
10	0.0850808	22.8	0.329998	9858.2	942.58	3057.42	0.00127932	-60.1688
11	0.0850931	22.8	0.329997	9858.22	943.624	3056.38	0.00128676	-60.1251
12	0.0851059	22.8	0.329997	9858.23	944.668	3055.33	0.00129426	-60.0852
13	0.0851192	22.8	0.329997	9858.25	945.712	3054.29	0.00130176	-60.0486
14	0.0851329	22.8	0.329997	9858.27	946.755	3053.25	0.00130921	-60.0152
15	0.085147	22.8	0.329997	9858.28	947.797	3052.2	0.00131657	-59.9847
16	0.0851615	22.7999	0.329996	9858.29	948.839	3051.16	0.0013238	-59.9569
17	0.0851763	22.7999	0.329996	9858.31	949.88	3050.12	0.00133088	-59.9315
18	0.0851914	22.7999	0.329996	9858.32	950.921	3049.08	0.00133777	-59.9083
19	0.0852068	22.7999	0.329996	9858.33	951.961	3048.04	0.00134446	-59.8872
20	0.0852224	22.7999	0.329996	9858.35	953.001	3047	0.00135093	-59.8681
21	0.0852382	22.7999	0.329996	9858.36	954.04	3045.96	0.00135717	-59.8507
22	0.0852542	22.7999	0.329995	9858.37	955.078	3044.92	0.00136318	-59.8349
23	0.0852704	22.7999	0.329995	9858.38	956.116	3043.88	0.00136894	-59.8206
24	0.0852867	22.7999	0.329995	9858.4	957.154	3042.85	0.00137445	-59.8077
25	0.0853032	22.7999	0.329995	9858.41	958.191	3041.81	0.00137972	-59.7961
26	0.0853197	22.7999	0.329995	9858.42	959.227	3040.77	0.00138473	-59.7857
27	0.0853364	22.7999	0.329995	9858.43	960.263	3039.74	0.0013895	-59.7763
28	0.0853531	22.7999	0.329995	9858.44	961.299	3038.7	0.00139402	-59.7679
29	0.0853699	22.7999	0.329994	9858.45	962.334	3037.67	0.00139831	-59.7605
30	0.0853867	22.7999	0.329994	9858.46	963.368	3036.63	0.00140235	-59.7539
31	0.0854036	22.7999	0.329994	9858.47	964.402	3035.6	0.00140617	-59.7481
32	0.0854206	22.7999	0.329994	9858.48	965.435	3034.56	0.00140977	-59.743
33	0.0854375	22.7999	0.329994	9858.49	966.468	3033.53	0.00141314	-59.7385
34	0.0854545	22.7999	0.329994	9858.5	967.501	3032.5	0.00141631	-59.7347
35	0.0854715	22.7999	0.329994	9858.51	968.532	3031.47	0.00141928	-59.7314
36	0.0854885	22.7999	0.329994	9858.52	969.564	3030.44	0.00142205	-59.7287
37	0.0855054	22.7999	0.329994	9858.52	970.595	3029.41	0.00142464	-59.7264
38	0.0855224	22.7999	0.329993	9858.53	971.625	3028.38	0.00142705	-59.7246
39	0.0855393	22.7999	0.329993	9858.54	972.655	3027.35	0.00142928	-59.7232
40	0.0855563	22.7999	0.329993	9858.55	973.684	3026.32	0.00143135	-59.7222
41	0.0855732	22.7999	0.329993	9858.56	974.713	3025.29	0.00143326	-59.7215
42	0.08559	22.7999	0.329993	9858.56	975.741	3024.26	0.00143503	-59.7211
43	0.0856068	22.7999	0.329993	9858.57	976.769	3023.23	0.00143665	-59.721
44	0.0856236	22.7999	0.329993	9858.58	977.796	3022.2	0.00143814	-59.7212
45	0.0856403	22.7999	0.329993	9858.59	978.823	3021.18	0.00143949	-59.7216
46	0.085657	22.7999	0.329993	9858.59	979.849	3020.15	0.00144073	-59.7223
47	0.0856736	22.7999	0.329993	9858.6	980.875	3019.12	0.00144185	-59.7232
48	0.0856902	22.7999	0.329993	9858.61	981.901	3018.1	0.00144286	-59.7242
49	0.0857067	22.7999	0.329993	9858.61	982.925	3017.07	0.00144377	-59.7255
50	0.0857232	22.7999	0.329993	9858.62	983.95	3016.05	0.00144457	-59.7269
51	0.0857396	22.7999	0.329993	9858.62	984.974	3015.03	0.00144529	-59.7284
52	0.0857559	22.7999	0.329993	9858.63	985.997	3014	0.00144592	-59.7301
53	0.0857722	22.7999	0.329993	9858.64	987.02	3012.98	0.00144647	-59.7319
54	0.0857884	22.7999	0.329993	9858.64	988.042	3011.96	0.00144694	-59.7339
55	0.0858046	22.7999	0.329993	9858.65	989.064	3010.94	0.00144733	-59.7359
56	0.0858207	22.7999	0.329993	9858.65	990.085	3009.91	0.00144766	-59.738
57	0.0858367	22.7999	0.329993	9858.66	991.106	3008.89	0.00144792	-59.7403
58	0.0858526	22.7999	0.329993	9858.66	992.127	3007.87	0.00144812	-59.7426
59	0.0858685	22.7999	0.329993	9858.67	993.146	3006.85	0.00144827	-59.7449
60	0.0858843	22.7999	0.329993	9858.67	994.166	3005.83	0.00144836	-59.7474
61	0.0859	22.7999	0.329993	9858.68	995.185	3004.82	0.00144841	-59.7499
62	0.0859156	22.7999	0.329993	9858.68	996.203	3003.8	0.0014484	-59.7525
63	0.0859312	22.7999	0.329993	9858.68	997.221	3002.78	0.00144835	-59.7551
64	0.0859467	22.7999	0.329993	9858.69	998.238	3001.76	0.00144826	-59.7577
65	0.0859621	22.7999	0.329993	9858.69	999.255	3000.74	0.00144813	-59.7604
66	0.0859775	22.7999	0.329993	9858.7	1000.27	2999.73	0.00144797	-59.7632
67	0.0859927	22.7999	0.329993	9858.7	1001.29	2998.71	0.00144777	-59.766
68	0.0860079	22.7999	0.329993	9858.7	1002.3	2997.7	0.00144754	-59.7688
69	0.0860231	22.7999	0.329993	9858.71	1003.32	2996.68	0.00144728	-59.7716
70	0.0860381	22.7999	0.329993	9858.71	1004.33	2995.67	0.001447	-59.7745
71	0.0860531	22.7999	0.329993	9858.71	1005.35	2994.65	0.00144668	-59.7774
72	0.086068	22.7999	0.329993	9858.71	1006.36	2993.64	0.00144635	-59.7803
73	0.0860828	22.7999	0.329993	9858.72	1007.37	2992.63	0.00144599	-59.7833
74	0.0860975	22.7999	0.329993	9858.72	1008.39	2991.61	0.00144561	-59.7862
75	0.0861122	22.7999	0.329994	9858.72	1009.4	2990.6	0.00144521	-59.7892
76	0.0861268	22.7999	0.329994	9858.72	1010.41	2989.59	0.0014448	-59.7922
77	0.0861413	22.7999	0.329994	9858.73	1011.42	2988.58	0.00144437	-59.7952
78	0.0861557	22.8	0.329994	9858.73	1012.43	2987.57	0.00144392	-59.7982
79	0.0861701	22.8	0.329994	9858.73	1013.44	2986.56	0.00144346	-59.8012
80	0.0861844	22.8	0.329994	9858.73	1014.45	2985.55	0.00144298	-59.8042
81	0.0861986	22.8	0.329994	9858.73	1015.46	2984.54	0.0014425	-59.8072
82	0.0862127	22.8	0.329994	9858.73	1016.47	2983.53	0.001442	-59.8103
83	0.0862268	22.8	0.329994	9858.73	1017.48	2982.52	0.00144149	-59.8133
84	0.0862408	22.8	0.329995	9858.74	1018.48	2981.52	0.00144097	-59.8164
85	0.0862547	22.8	0.329995	9858.74	1019.49	2980.51	0.00144045	-59.8194
86	0.0862685	22.8	0.329995	9858.74	1020.5	2979.5	0.00143991	-59.8225
87	0.0862822	22.8	0.329995	9858.74	1021.51	2978.49	0.00143937	-59.8255
88	0.0862959	22.8	0.329995	9858.74	1022.51	2977.49	0.00143882	-59.8286
89	0.0863095	22.8	0.329995	9858.74	1023.52	2976.48	0.00143827	-59.8316
90	0.086323	22.8	0.329995	9858.74	1024.52	2975.48	0.00143771	-59.8347
91	0.0863365	22.8	0.329996	9858.74	1025.53	2974.47	0.00143714	-59.8377
92	0.0863499	22.8	0.329996	9858.74	1026.53	2973.47	0.00143657	-59.8408
93	0.0863632	22.8	0.329996	9858.74	1027.53	2972.47	0.001436	-59.8438
94	0.0863764	22.8	0.329996	9858.74	1028.54	2971.46	0.00143542	-59.8469
95	0.0863896	22.8	0.329996	9858.74	1029.54	2970.46	0.00143484	-59.8499
96	0.0864027	22.8	0.329996	9858.74	1030.54	2969.46	0.00143425	-59.853
97	0.0864157	22.8	0.329997	9858.73	1031.54	2968.46	0.00143366	-59.856
98	0.0864286	22.8	0.329997	9858.73	1032.54	2967.46	0.00143307	-59.859
99	0.0864415	22.8	0.329997	9858.73	1033.54	2966.46	0.00143248	-59.8621
100	0.0864543	22.8	0.329997	9858.73	1034.54	2965.46	0.00143188	-59.8651
