Time	[Smad2c]	[Smad2n]	[Smad4c]	[Smad4n]	[T1R_Surf]	[T1R_Cave]	[T1R_EE]	[T2R_Surf]	[T2R_Cave]	[T2R_EE]	[LRC_Surf]	[LRC_Cave]	[LRC_EE]	[Smads_Complex_c]	[Smads_Complex_n]	[TGF_beta]
0	492.61	236.45	1149.4	551.72	0.237	2.092	2.06	0.202	1.778	1.148	0	0	0	0	0	0.08
1	491.559	236.324	1148.33	551.647	0.0495189	2.03359	2.00161	0.0142674	1.71974	1.09026	0.187584	0.0583105	0.0583414	1.04008	0.158775	0.0797192
2	488.433	235.633	1145.11	551.232	0.0496048	1.97495	1.94303	0.0142566	1.6612	1.0334	0.187533	0.115461	0.116898	4.0367	1.23836	0.0796325
3	483.466	234.246	1139.98	550.349	0.0495907	1.91849	1.88664	0.0142497	1.6048	0.979734	0.187431	0.162914	0.173252	8.57019	3.92568	0.0795481
4	476.883	232.223	1133.17	549.016	0.0494614	1.86407	1.83233	0.0142048	1.55047	0.929089	0.186992	0.189345	0.227427	14.2531	8.64779	0.0794658
5	468.925	229.68	1124.93	547.318	0.0491932	1.81158	1.77999	0.0140833	1.4981	0.881272	0.185764	0.18472	0.279324	20.736	15.6178	0.0793855
6	459.849	226.741	1115.52	545.367	0.0487921	1.76092	1.72948	0.0138823	1.44761	0.836096	0.183372	0.15113	0.328705	27.7054	24.8752	0.079307
7	449.924	223.533	1105.22	543.278	0.0483102	1.71197	1.68072	0.0136482	1.3989	0.793395	0.179856	0.105499	0.375278	34.8846	36.3218	0.0792302
8	439.416	220.168	1094.3	541.157	0.0478121	1.66466	1.63361	0.0134416	1.35191	0.753028	0.175726	0.0669227	0.418859	42.0367	49.7537	0.0791552
9	428.575	216.75	1083.01	539.095	0.0473292	1.61892	1.5881	0.0132907	1.30658	0.714879	0.171604	0.042845	0.459464	48.9704	64.8928	0.079082
10	417.623	213.364	1071.57	537.163	0.0468562	1.57472	1.54413	0.0131874	1.26288	0.678839	0.167855	0.0299226	0.497276	55.5433	81.4163	0.0790104
11	406.747	210.077	1060.18	535.416	0.0463779	1.53198	1.50165	0.0131142	1.22075	0.644802	0.164543	0.0228046	0.532536	61.659	98.9836	0.0789406
12	396.1	206.942	1049	533.884	0.0458857	1.49065	1.4606	0.0130602	1.18016	0.612663	0.161591	0.0183819	0.56547	67.2602	117.257	0.0788723
13	385.802	203.991	1038.15	532.586	0.0453767	1.45068	1.42091	0.0130207	1.14103	0.582319	0.158903	0.015347	0.596266	72.3207	135.92	0.0788056
14	375.946	201.248	1027.73	531.524	0.0448507	1.41201	1.38254	0.0129934	1.10334	0.553676	0.156408	0.0131393	0.625076	76.838	154.681	0.0787403
15	366.596	198.724	1017.82	530.69	0.0443083	1.37459	1.34542	0.0129771	1.06702	0.526639	0.154058	0.0114726	0.652029	80.827	173.287	0.0786766
16	357.798	196.421	1008.46	530.07	0.0437504	1.33837	1.30951	0.0129712	1.03203	0.501122	0.151822	0.0101796	0.677235	84.3149	191.521	0.0786142
17	349.576	194.336	999.686	529.644	0.0431781	1.30329	1.27476	0.0129751	0.998329	0.477043	0.149679	0.00915463	0.700793	87.3368	209.207	0.0785532
18	341.94	192.461	991.51	529.389	0.0425923	1.26931	1.24111	0.0129882	0.965867	0.454323	0.147615	0.0083277	0.722791	89.9327	226.202	0.0784935
19	334.887	190.785	983.934	529.283	0.0419943	1.23639	1.20853	0.0130104	0.934602	0.43289	0.145622	0.00765054	0.743313	92.1448	242.4	0.0784351
20	328.405	189.294	976.949	529.302	0.0413852	1.20448	1.17697	0.0130414	0.904494	0.412673	0.143693	0.00708891	0.762435	94.0154	257.725	0.0783779
21	322.473	187.974	970.537	529.423	0.0407659	1.17355	1.14638	0.0130809	0.875504	0.393606	0.141821	0.00661786	0.780229	95.5856	272.129	0.0783219
22	317.066	186.811	964.675	529.626	0.0401375	1.14355	1.11673	0.0131288	0.847593	0.375628	0.140004	0.00621888	0.796762	96.8945	285.586	0.078267
23	312.155	185.788	959.334	529.891	0.0395011	1.11444	1.08799	0.0131849	0.820723	0.358679	0.138238	0.00587794	0.812098	97.9781	298.093	0.0782133
24	307.707	184.891	954.484	530.202	0.0388575	1.0862	1.06011	0.0132493	0.79486	0.342705	0.136519	0.00558426	0.826299	98.8691	309.659	0.0781607
25	303.691	184.108	950.092	530.545	0.0382078	1.05879	1.03305	0.0133217	0.769969	0.327653	0.134845	0.00532943	0.839421	99.5971	320.309	0.0781091
26	300.072	183.424	946.125	530.906	0.0375528	1.03217	1.0068	0.0134022	0.746017	0.313473	0.133215	0.00510679	0.851518	100.188	330.076	0.0780585
27	296.82	182.828	942.55	531.277	0.0368935	1.00631	0.981313	0.0134908	0.722972	0.30012	0.131625	0.00491107	0.862644	100.664	339.002	0.078009
28	293.901	182.309	939.335	531.648	0.0362306	0.981196	0.956561	0.0135873	0.700804	0.287549	0.130074	0.00473795	0.872846	101.045	347.132	0.0779603
29	291.288	181.858	936.45	532.014	0.0355649	0.956784	0.932517	0.0136918	0.679482	0.275719	0.12856	0.00458397	0.882171	101.347	354.515	0.0779127
30	288.952	181.467	933.865	532.369	0.0348974	0.933054	0.909154	0.0138044	0.658979	0.26459	0.127081	0.00444627	0.890664	101.585	361.202	0.0778659
31	286.867	181.127	931.552	532.709	0.0342286	0.909979	0.886445	0.013925	0.639266	0.254125	0.125635	0.00432249	0.898368	101.77	367.243	0.07782
32	285.008	180.832	929.488	533.033	0.0335594	0.887534	0.864367	0.0140537	0.620318	0.24429	0.124222	0.00421066	0.905321	101.911	372.689	0.077775
33	283.355	180.576	927.648	533.338	0.0328904	0.865697	0.842895	0.0141906	0.602108	0.235052	0.122839	0.00410913	0.911562	102.017	377.587	0.0777308
34	281.887	180.356	926.011	533.623	0.0322223	0.844446	0.822007	0.0143357	0.584614	0.22638	0.121486	0.00401654	0.917128	102.094	381.983	0.0776874
35	280.585	180.165	924.557	533.889	0.0315559	0.823759	0.801682	0.014489	0.56781	0.218244	0.120161	0.00393171	0.922052	102.146	385.921	0.0776447
36	279.434	180.001	923.269	534.136	0.0308916	0.803616	0.781899	0.0146508	0.551674	0.210618	0.118862	0.00385365	0.926368	102.178	389.442	0.0776029
37	278.419	179.86	922.132	534.364	0.0302301	0.783998	0.76264	0.014821	0.536185	0.203474	0.117588	0.00378151	0.930107	102.193	392.583	0.0775618
38	277.528	179.741	921.13	534.574	0.029572	0.764887	0.743885	0.0149997	0.521321	0.196789	0.116339	0.00371458	0.933298	102.192	395.38	0.0775214
39	276.748	179.64	920.252	534.768	0.0289179	0.746266	0.725616	0.0151871	0.507062	0.190539	0.115114	0.00365223	0.93597	102.178	397.863	0.0774817
40	276.069	179.556	919.485	534.946	0.0282683	0.728117	0.707818	0.0153833	0.49339	0.184703	0.11391	0.00359395	0.938148	102.152	400.062	0.0774428
41	275.482	179.488	918.821	535.11	0.0276237	0.710426	0.690474	0.0155883	0.480284	0.17926	0.112727	0.00353926	0.939859	102.115	402.003	0.0774045
42	274.979	179.433	918.249	535.261	0.0269846	0.693176	0.673569	0.0158023	0.467728	0.17419	0.111565	0.00348778	0.941127	102.067	403.709	0.0773668
43	274.552	179.391	917.763	535.4	0.0263516	0.676354	0.657088	0.0160253	0.455703	0.169477	0.110422	0.00343915	0.941974	102.009	405.203	0.0773298
44	274.197	179.362	917.354	535.529	0.025725	0.659945	0.641018	0.0162575	0.444194	0.165102	0.109297	0.00339309	0.942422	101.942	406.503	0.0772934
45	273.906	179.343	917.018	535.648	0.0251054	0.643938	0.625345	0.016499	0.433184	0.16105	0.10819	0.00334934	0.942493	101.864	407.626	0.0772577
46	273.675	179.335	916.747	535.76	0.0244932	0.628318	0.610057	0.0167498	0.422659	0.157305	0.107099	0.00330766	0.942205	101.777	408.587	0.0772225
47	273.5	179.337	916.538	535.864	0.0238886	0.613076	0.595142	0.0170101	0.412603	0.153853	0.106025	0.00326786	0.941577	101.681	409.4	0.077188
48	273.376	179.348	916.385	535.961	0.0232923	0.598199	0.580589	0.01728	0.403002	0.15068	0.104965	0.00322976	0.940627	101.575	410.077	0.077154
49	273.301	179.368	916.285	536.054	0.0227044	0.583676	0.566387	0.0175595	0.393842	0.147775	0.10392	0.00319322	0.939372	101.46	410.63	0.0771206
50	273.27	179.396	916.235	536.141	0.0221253	0.569498	0.552525	0.0178487	0.385112	0.145124	0.102889	0.00315809	0.937827	101.336	411.066	0.0770877
51	273.282	179.433	916.231	536.224	0.0215554	0.555654	0.538994	0.0181477	0.376797	0.142717	0.101871	0.00312426	0.936008	101.202	411.396	0.0770554
52	273.333	179.477	916.27	536.304	0.020995	0.542136	0.525785	0.0184565	0.368886	0.140543	0.100866	0.00309162	0.93393	101.059	411.627	0.0770237
53	273.421	179.528	916.351	536.38	0.0204443	0.528935	0.512888	0.0187752	0.361367	0.138592	0.0998722	0.00306008	0.931606	100.907	411.765	0.0769924
54	273.545	179.587	916.469	536.454	0.0199035	0.516041	0.500296	0.0191037	0.354229	0.136855	0.0988903	0.00302955	0.929048	100.747	411.817	0.0769617
55	273.703	179.652	916.625	536.526	0.0193729	0.503448	0.488	0.0194423	0.347461	0.135322	0.0979195	0.00299996	0.926269	100.577	411.789	0.0769315
56	273.891	179.724	916.814	536.596	0.0188528	0.491147	0.475992	0.0197907	0.341053	0.133986	0.0969593	0.00297124	0.923282	100.399	411.685	0.0769018
57	274.111	179.803	917.037	536.665	0.0183432	0.479131	0.464265	0.020149	0.334995	0.132839	0.0960092	0.00294333	0.920097	100.212	411.51	0.0768726
58	274.358	179.887	917.29	536.732	0.0178443	0.467393	0.452812	0.0205172	0.329277	0.131873	0.0950689	0.00291617	0.916724	100.017	411.267	0.0768439
59	274.633	179.978	917.573	536.798	0.0173563	0.455926	0.441626	0.0208953	0.323891	0.131081	0.0941379	0.00288972	0.913174	99.8137	410.961	0.0768157
60	274.934	180.074	917.885	536.863	0.0168792	0.444724	0.430701	0.0212831	0.318825	0.130456	0.0932161	0.00286393	0.909457	99.6025	410.596	0.076788
61	275.26	180.175	918.223	536.927	0.0164132	0.433781	0.420031	0.0216806	0.314074	0.129993	0.0923031	0.00283875	0.905581	99.3836	410.173	0.0767607
62	275.61	180.282	918.587	536.991	0.0159583	0.423091	0.40961	0.0220877	0.309627	0.129684	0.0913986	0.00281417	0.901556	99.1572	409.696	0.076734
63	275.983	180.394	918.976	537.055	0.0155144	0.412648	0.399431	0.0225042	0.305476	0.129525	0.0905024	0.00279013	0.897389	98.9235	409.168	0.0767076
64	276.377	180.51	919.388	537.118	0.0150818	0.402446	0.389491	0.0229301	0.301615	0.129511	0.0896143	0.00276661	0.893088	98.6826	408.591	0.0766818
65	276.792	180.632	919.823	537.18	0.0146602	0.392481	0.379782	0.0233652	0.298035	0.129634	0.0887341	0.00274359	0.888662	98.4347	407.967	0.0766564
66	277.228	180.758	920.279	537.243	0.0142497	0.382747	0.370301	0.0238093	0.294729	0.129892	0.0878617	0.00272104	0.884117	98.1802	407.298	0.0766314
67	277.682	180.888	920.757	537.305	0.0138502	0.373239	0.361043	0.0242623	0.291689	0.13028	0.086997	0.00269893	0.87946	97.9192	406.587	0.0766069
68	278.156	181.023	921.254	537.368	0.0134617	0.363953	0.352002	0.0247239	0.288909	0.130792	0.0861397	0.00267726	0.874698	97.6518	405.835	0.0765828
69	278.647	181.162	921.771	537.43	0.0130841	0.354884	0.343174	0.0251939	0.286383	0.131424	0.08529	0.00265599	0.869837	97.3783	405.043	0.0765592
70	279.155	181.304	922.306	537.492	0.0127171	0.346028	0.334554	0.0256721	0.284102	0.132173	0.0844476	0.00263512	0.864884	97.0988	404.214	0.076536
71	279.68	181.451	922.859	537.554	0.0123608	0.337379	0.326139	0.0261583	0.282062	0.133034	0.0836126	0.00261462	0.859844	96.8137	403.349	0.0765132
72	280.22	181.601	923.429	537.616	0.0120149	0.328935	0.317925	0.0266523	0.280255	0.134004	0.0827849	0.00259449	0.854722	96.5229	402.449	0.0764909
73	280.776	181.755	924.015	537.679	0.0116794	0.32069	0.309906	0.0271537	0.278676	0.135079	0.0819645	0.00257471	0.849524	96.2268	401.516	0.0764689
74	281.347	181.912	924.617	537.741	0.0113539	0.312642	0.302079	0.0276623	0.277319	0.136255	0.0811515	0.00255528	0.844256	95.9254	400.551	0.0764474
75	281.931	182.073	925.235	537.803	0.0110384	0.304785	0.29444	0.0281778	0.276177	0.137529	0.0803457	0.00253618	0.838923	95.6191	399.556	0.0764263
76	282.53	182.237	925.867	537.866	0.0107327	0.297116	0.286985	0.0287	0.275245	0.138898	0.0795473	0.0025174	0.833528	95.3078	398.53	0.0764056
77	283.141	182.403	926.513	537.928	0.0104365	0.289631	0.279711	0.0292285	0.274518	0.140358	0.0787564	0.00249894	0.828077	94.9919	397.477	0.0763853
78	283.766	182.573	927.173	537.991	0.0101497	0.282327	0.272614	0.0297631	0.273989	0.141906	0.0779728	0.00248079	0.822575	94.6714	396.395	0.0763654
79	284.402	182.746	927.846	538.054	0.00987191	0.275199	0.26569	0.0303034	0.273654	0.14354	0.0771967	0.00246294	0.817025	94.3465	395.288	0.0763459
80	285.051	182.921	928.532	538.117	0.00960308	0.268245	0.258936	0.0308493	0.273507	0.145255	0.0764282	0.00244539	0.811432	94.0175	394.155	0.0763268
81	285.71	183.099	929.23	538.18	0.00934291	0.261461	0.252348	0.0314003	0.273544	0.14705	0.0756672	0.00242814	0.8058	93.6843	392.997	0.0763081
82	286.381	183.28	929.94	538.243	0.00909119	0.254842	0.245923	0.0319562	0.273758	0.148921	0.0749139	0.00241117	0.800133	93.3472	391.816	0.0762897
83	287.062	183.463	930.661	538.306	0.00884769	0.248387	0.239657	0.0325167	0.274145	0.150865	0.0741682	0.00239449	0.794434	93.0064	390.613	0.0762718
84	287.753	183.649	931.393	538.37	0.00861217	0.242092	0.233547	0.0330815	0.2747	0.15288	0.0734303	0.00237809	0.788708	92.6619	389.387	0.0762542
85	288.454	183.837	932.135	538.433	0.00838441	0.235952	0.22759	0.0336503	0.275419	0.154964	0.0727003	0.00236197	0.782958	92.314	388.14	0.076237
86	289.164	184.027	932.887	538.497	0.00816417	0.229965	0.221783	0.0342228	0.276296	0.157113	0.0719781	0.00234613	0.777187	91.9627	386.873	0.0762201
87	289.883	184.219	933.649	538.56	0.00795123	0.224129	0.216122	0.0347988	0.277326	0.159325	0.0712638	0.00233055	0.771398	91.6083	385.587	0.0762036
88	290.611	184.413	934.421	538.624	0.00774536	0.218438	0.210605	0.0353779	0.278506	0.161598	0.0705575	0.00231525	0.765596	91.2508	384.282	0.0761875
89	291.347	184.609	935.201	538.688	0.00754633	0.212892	0.205227	0.0359599	0.279831	0.163928	0.0698593	0.00230022	0.759782	90.8903	382.958	0.0761718
90	292.091	184.807	935.99	538.751	0.00735393	0.207485	0.199987	0.0365445	0.281296	0.166315	0.0691691	0.00228545	0.75396	90.5271	381.618	0.0761564
91	292.843	185.007	936.787	538.815	0.00716795	0.202216	0.194881	0.0371315	0.282897	0.168754	0.068487	0.00227095	0.748133	90.1613	380.261	0.0761413
92	293.602	185.208	937.591	538.879	0.00698816	0.197081	0.189906	0.0377206	0.284629	0.171245	0.067813	0.00225671	0.742304	89.793	378.888	0.0761266
93	294.368	185.411	938.404	538.943	0.00681436	0.192078	0.185059	0.0383116	0.286489	0.173785	0.0671473	0.00224273	0.736476	89.4222	377.499	0.0761122
94	295.14	185.616	939.223	539.007	0.00664634	0.187203	0.180338	0.0389041	0.288473	0.176371	0.0664897	0.002229	0.73065	89.0493	376.096	0.0760982
95	295.919	185.822	940.049	539.071	0.00648392	0.182453	0.175739	0.0394981	0.290575	0.179002	0.0658404	0.00221554	0.72483	88.6742	374.68	0.0760844
96	296.703	186.029	940.882	539.134	0.00632688	0.177826	0.17126	0.0400932	0.292793	0.181675	0.0651993	0.00220233	0.719019	88.2972	373.249	0.0760711
97	297.494	186.238	941.72	539.198	0.00617506	0.173319	0.166898	0.0406892	0.295123	0.184388	0.0645664	0.00218937	0.713217	87.9182	371.806	0.076058
98	298.29	186.448	942.565	539.262	0.00602825	0.16893	0.162651	0.041286	0.29756	0.18714	0.0639418	0.00217667	0.707429	87.5376	370.351	0.0760453
99	299.09	186.659	943.415	539.326	0.00588629	0.164654	0.158515	0.0418833	0.300101	0.189928	0.0633255	0.00216421	0.701655	87.1554	368.884	0.0760328
100	299.896	186.871	944.27	539.389	0.00574901	0.160491	0.154488	0.0424809	0.302742	0.192751	0.0627174	0.002152	0.695898	86.7717	367.406	0.0760207
