Time	[A]	[AgB]	[gB]	[rB]	[B]	[AB]
0	40	0	1	0	0	0
1	138.725	0.0842695	0.91573	0.269132	0.00577048	0.295215
2	234.818	0.234784	0.765216	1.11281	0.0141745	2.17042
3	326.272	0.410954	0.589046	2.73702	0.0251291	7.68434
4	410.783	0.57617	0.42383	5.14923	0.0375732	19.1878
5	486.266	0.708747	0.291253	8.21375	0.0506463	38.7968
6	551.155	0.803105	0.196895	11.7346	0.0638475	68.0906
7	604.48	0.86426	0.13574	15.523	0.0770169	108.045
8	645.778	0.901169	0.0988306	19.4322	0.0902513	159.122
9	674.962	0.92231	0.0776905	23.3627	0.103818	221.41
10	692.18	0.93394	0.0660604	27.254	0.1181	294.763
11	697.721	0.94005	0.0599498	31.0719	0.133575	378.897
12	691.95	0.942945	0.057055	34.798	0.15084	473.454
13	675.269	0.943856	0.0561438	38.4227	0.170665	578.041
14	648.096	0.943391	0.0566087	41.9412	0.194101	692.245
15	610.86	0.941803	0.0581966	45.3507	0.222666	815.648
16	563.991	0.939133	0.0608668	48.6492	0.258699	947.827
17	507.924	0.935269	0.0647306	51.8345	0.306041	1088.36
18	443.099	0.929957	0.0700427	54.9036	0.371539	1236.8
19	369.972	0.922765	0.0772354	57.852	0.468766	1392.73
20	289.026	0.913	0.0870004	60.6726	0.629007	1555.64
21	200.83	0.899554	0.100446	63.3544	0.944017	1725
22	106.326	0.880623	0.119377	65.8797	1.84245	1899.86
23	14.286	0.85342	0.14658	68.2201	11.5165	2071.47
24	0.957185	0.820479	0.179521	70.3421	105.55	2163.58
25	0.46133	0.788431	0.211569	72.2441	217.351	2242.07
26	0.30004	0.757598	0.242402	73.9382	333.735	2319.45
27	0.22055	0.727956	0.272044	75.4362	453.802	2395.98
28	0.17345	0.699468	0.300532	76.7497	576.901	2471.71
29	0.142432	0.672089	0.327911	77.8896	702.45	2546.68
30	0.120546	0.64578	0.35422	78.8662	829.916	2620.89
31	0.104336	0.620499	0.379501	79.6894	958.804	2694.35
32	0.0918877	0.596206	0.403794	80.3688	1088.65	2767.08
33	0.0820572	0.572864	0.427136	80.913	1219.04	2839.08
34	0.0741192	0.550435	0.449565	81.3308	1349.56	2910.36
35	0.0675919	0.528884	0.471116	81.6301	1479.86	2980.93
36	0.0621432	0.508177	0.491823	81.8185	1609.58	3050.8
37	0.0575366	0.48828	0.51172	81.9035	1738.43	3119.97
38	0.0535995	0.469163	0.530837	81.8917	1866.1	3188.45
39	0.050203	0.450794	0.549206	81.7899	1992.33	3256.24
40	0.0472488	0.433145	0.566855	81.6041	2116.87	3323.37
41	0.0446611	0.416187	0.583813	81.3404	2239.5	3389.82
42	0.04238	0.399893	0.600107	81.0042	2360.02	3455.61
43	0.0403581	0.384238	0.615762	80.6008	2478.23	3520.74
44	0.0385571	0.369196	0.630804	80.1353	2593.97	3585.23
45	0.0369458	0.354743	0.645257	79.6123	2707.08	3649.07
46	0.0354985	0.340857	0.659143	79.0365	2817.43	3712.28
47	0.0341942	0.327514	0.672486	78.4119	2924.89	3774.86
48	0.0330149	0.314695	0.685305	77.7427	3029.34	3836.81
49	0.0319458	0.302377	0.697623	77.0326	3130.7	3898.15
50	0.0309744	0.290543	0.709457	76.2852	3228.87	3958.88
51	0.0300897	0.279172	0.720828	75.5039	3323.78	4019
52	0.0292826	0.268246	0.731754	74.6919	3415.37	4078.52
53	0.0285452	0.257749	0.742251	73.8522	3503.59	4137.45
54	0.0278706	0.247663	0.752337	72.9876	3588.38	4195.8
55	0.0272527	0.237973	0.762027	72.1009	3669.72	4253.56
56	0.0266865	0.228662	0.771338	71.1945	3747.56	4310.75
57	0.0261673	0.219716	0.780284	70.2709	3821.91	4367.37
58	0.0256911	0.211121	0.788879	69.3322	3892.73	4423.42
59	0.0252544	0.202862	0.797138	68.3806	3960.03	4478.92
60	0.0248541	0.194928	0.805072	67.418	4023.8	4533.86
61	0.0244874	0.187304	0.812696	66.4464	4084.05	4588.26
62	0.0241518	0.179979	0.820021	65.4674	4140.78	4642.11
63	0.0238451	0.172941	0.827059	64.4827	4194.03	4695.43
64	0.0235654	0.16618	0.83382	63.4938	4243.79	4748.22
65	0.0233109	0.159683	0.840317	62.5021	4290.11	4800.48
66	0.0230801	0.153441	0.846559	61.509	4333	4852.22
67	0.0228715	0.147443	0.852557	60.5157	4372.5	4903.45
68	0.022684	0.141681	0.858319	59.5233	4408.64	4954.17
69	0.0225163	0.136145	0.863855	58.5331	4441.47	5004.38
70	0.0223674	0.130826	0.869174	57.5459	4471.02	5054.09
71	0.0222365	0.125715	0.874285	56.5627	4497.33	5103.31
72	0.0221227	0.120805	0.879195	55.5844	4520.45	5152.04
73	0.0220253	0.116087	0.883913	54.6118	4540.43	5200.28
74	0.0219437	0.111554	0.888446	53.6456	4557.32	5248.04
75	0.0218771	0.107199	0.892801	52.6865	4571.17	5295.33
76	0.0218253	0.103015	0.896985	51.7352	4582.03	5342.15
77	0.0217876	0.098995	0.901005	50.7921	4589.95	5388.5
78	0.0217636	0.0951326	0.904867	49.858	4594.99	5434.39
79	0.0217531	0.0914217	0.908578	48.9331	4597.21	5479.82
80	0.0217556	0.0878564	0.912144	48.018	4596.66	5524.8
81	0.0217711	0.084431	0.915569	47.1131	4593.4	5569.33
82	0.0217991	0.08114	0.91886	46.2188	4587.48	5613.42
83	0.0218396	0.0779782	0.922022	45.3353	4578.97	5657.07
84	0.0218923	0.0749404	0.92506	44.463	4567.93	5700.29
85	0.0219573	0.0720218	0.927978	43.602	4554.41	5743.07
86	0.0220344	0.0692178	0.930782	42.7527	4538.47	5785.43
87	0.0221236	0.0665239	0.933476	41.9153	4520.17	5827.37
88	0.0222248	0.0639358	0.936064	41.0898	4499.57	5868.89
89	0.0223382	0.0614493	0.938551	40.2765	4476.73	5910
90	0.0224637	0.0590604	0.94094	39.4755	4451.71	5950.69
91	0.0226015	0.0567654	0.943235	38.6868	4424.56	5990.99
92	0.0227517	0.0545606	0.945439	37.9106	4395.35	6030.88
93	0.0229144	0.0524424	0.947558	37.1469	4364.14	6070.38
94	0.0230899	0.0504075	0.949592	36.3957	4330.97	6109.48
95	0.0232783	0.0484526	0.951547	35.6571	4295.91	6148.19
96	0.02348	0.0465746	0.953425	34.9311	4259.01	6186.52
97	0.0236951	0.0447704	0.95523	34.2177	4220.33	6224.46
98	0.0239242	0.0430372	0.956963	33.5168	4179.92	6262.03
99	0.0241674	0.0413723	0.958628	32.8284	4137.85	6299.23
100	0.0244253	0.0397729	0.960227	32.1525	4094.15	6336.05
