Time	[sumrc1]	[r]	[c1]	[c2]	[ePI3K]	[m3PI]	[eGEF]	[mRas]	[x1]	[x2]	[y]	[yp]	[ypp]	[z]	[zp]	[zpp]	[fGEF]	[w]	[eph]
0	1	0.6	0.4	0	0	0	0	0	0	0	1	0	0	1	0	0	1	0	1
1	0.912898	0.547739	0.365159	0.0394496	0.947042	0.534218	0.956464	0.599489	0.191746	0.785311	0.858768	0.117453	0.0237793	0.971304	0.0267358	0.00196011	0.999457	6.12312e-06	1
2	0.84061	0.504366	0.336244	0.0652451	0.969294	0.805022	0.825384	0.812503	0.490815	1.00823	0.621795	0.240744	0.137461	0.622741	0.139027	0.238232	0.848063	0.00245804	1.00001
3	0.77969	0.467814	0.311876	0.0813844	0.9757	0.91153	0.508888	0.707255	0.647503	1.04655	0.480662	0.292187	0.227151	0.201093	0.0714999	0.727407	0.520215	0.0187901	1.00164
4	0.727678	0.436607	0.291071	0.0907043	0.978315	0.953167	0.347102	0.525123	0.634356	1.05569	0.439858	0.310219	0.249923	0.045425	0.0364298	0.918145	0.354079	0.0458503	1.01582
5	0.682771	0.409663	0.273109	0.0952356	0.979393	0.969514	0.284209	0.397014	0.545715	1.06009	0.453966	0.312684	0.23335	0.0119944	0.0316585	0.956347	0.289667	0.0752345	1.05808
6	0.643622	0.386173	0.257449	0.0964403	0.979662	0.975889	0.261166	0.327053	0.45301	1.06323	0.488349	0.306582	0.20507	0.00611745	0.0360425	0.95784	0.266121	0.10416	1.13557
7	0.6092	0.36552	0.24368	0.0953737	0.979424	0.978208	0.252978	0.293188	0.382647	1.06545	0.523848	0.296745	0.179406	0.00629795	0.0439782	0.949724	0.257825	0.132001	1.24689
8	0.57871	0.347226	0.231484	0.0927975	0.978827	0.978773	0.250239	0.277981	0.336676	1.06686	0.552087	0.287114	0.160799	0.00857018	0.0535865	0.937843	0.255154	0.158594	1.38581
9	0.551524	0.330915	0.22061	0.0892602	0.977947	0.978497	0.2495	0.271578	0.309207	1.06765	0.571435	0.27968	0.148886	0.0121189	0.0636458	0.924235	0.254574	0.183894	1.54426
10	0.527143	0.316286	0.210857	0.0851546	0.97683	0.97775	0.249492	0.26911	0.293781	1.06802	0.58341	0.274723	0.141866	0.0166219	0.0733226	0.910055	0.254785	0.207909	1.71419
11	0.505164	0.303098	0.202065	0.08076	0.975502	0.97669	0.249741	0.268335	0.285544	1.06813	0.59028	0.271724	0.137996	0.0218007	0.0821968	0.896003	0.255297	0.230673	1.88859
12	0.485257	0.291154	0.194103	0.0762721	0.97398	0.975389	0.250064	0.268259	0.281367	1.06808	0.593973	0.270027	0.136	0.0273919	0.0901528	0.882455	0.255918	0.252239	2.06195
13	0.467154	0.280292	0.186861	0.0718255	0.972273	0.97388	0.25039	0.268453	0.279389	1.06794	0.595828	0.269114	0.135058	0.0331759	0.0972288	0.869595	0.256571	0.272665	2.23026
14	0.450628	0.270377	0.180251	0.0675106	0.970389	0.97218	0.250689	0.268731	0.27856	1.06772	0.596674	0.268643	0.134683	0.038988	0.103513	0.857499	0.257223	0.292015	2.39086
15	0.435492	0.261295	0.174197	0.0633853	0.968332	0.9703	0.250949	0.269017	0.278309	1.06746	0.596992	0.268409	0.134599	0.0447119	0.109099	0.846189	0.257859	0.310347	2.54215
16	0.421586	0.252951	0.168634	0.0594842	0.966107	0.968246	0.251165	0.269277	0.278331	1.06717	0.59705	0.268297	0.134652	0.050268	0.11407	0.835662	0.258472	0.327721	2.68336
17	0.408775	0.245265	0.16351	0.0558251	0.963717	0.966023	0.251337	0.269498	0.278468	1.06685	0.596991	0.268244	0.134764	0.0556032	0.118499	0.825898	0.259059	0.344194	2.81427
18	0.396943	0.238166	0.158777	0.0524143	0.961166	0.963635	0.251465	0.269675	0.278639	1.06649	0.596891	0.268217	0.134892	0.0606838	0.122451	0.816866	0.259616	0.35982	2.93508
19	0.38599	0.231594	0.154396	0.04925	0.958458	0.961086	0.251549	0.269807	0.278802	1.06612	0.596788	0.268198	0.135014	0.0654911	0.125982	0.808527	0.260143	0.37465	3.04623
20	0.375829	0.225498	0.150332	0.0463246	0.955597	0.95838	0.251593	0.269895	0.278937	1.06572	0.596701	0.268179	0.13512	0.0700178	0.129143	0.800839	0.26064	0.388732	3.14831
21	0.366385	0.219831	0.146554	0.0436273	0.95259	0.955522	0.251598	0.269941	0.279037	1.06529	0.596639	0.268154	0.135207	0.0742653	0.13198	0.793755	0.261107	0.402111	3.24197
22	0.357592	0.214555	0.143037	0.0411452	0.949442	0.952518	0.251569	0.269947	0.279097	1.06485	0.596606	0.268124	0.135271	0.0782413	0.134532	0.787226	0.261546	0.414829	3.32791
23	0.349392	0.209635	0.139757	0.0388641	0.94616	0.949373	0.251508	0.269917	0.279119	1.06438	0.596602	0.268085	0.135313	0.0819581	0.136836	0.781205	0.261957	0.426925	3.40677
24	0.341732	0.205039	0.136693	0.0367698	0.942753	0.946095	0.251419	0.269854	0.279103	1.06389	0.596626	0.268039	0.135335	0.0854306	0.138923	0.775647	0.262342	0.438435	3.47921
25	0.334568	0.200741	0.133827	0.0348477	0.939227	0.942691	0.251305	0.269762	0.279053	1.06338	0.596678	0.267985	0.135336	0.0886748	0.140818	0.770507	0.262703	0.449394	3.54582
26	0.327858	0.196715	0.131143	0.0330841	0.935593	0.93917	0.251169	0.269644	0.278972	1.06284	0.596756	0.267924	0.13532	0.0917075	0.142546	0.765747	0.263041	0.459832	3.60713
27	0.321566	0.19294	0.128626	0.0314657	0.931859	0.93554	0.251016	0.269503	0.278862	1.06229	0.596856	0.267857	0.135287	0.094545	0.144125	0.76133	0.263358	0.469777	3.66365
28	0.315659	0.189396	0.126264	0.0299801	0.928037	0.931811	0.250846	0.269343	0.278729	1.06172	0.596977	0.267784	0.135239	0.0972028	0.145575	0.757222	0.263656	0.479258	3.71582
29	0.310108	0.186065	0.124043	0.0286157	0.924135	0.927994	0.250665	0.269167	0.278574	1.06113	0.597116	0.267705	0.135179	0.0996956	0.146908	0.753396	0.263935	0.488298	3.76406
30	0.304887	0.182932	0.121955	0.0273618	0.920164	0.924097	0.250472	0.268978	0.278401	1.06052	0.597272	0.267622	0.135106	0.102037	0.148139	0.749824	0.264199	0.496921	3.80872
31	0.299971	0.179982	0.119988	0.0262086	0.916136	0.920132	0.250272	0.268778	0.278213	1.0599	0.597442	0.267535	0.135023	0.104239	0.149278	0.746483	0.264447	0.505148	3.85013
32	0.295338	0.177203	0.118135	0.0251469	0.912061	0.916109	0.250066	0.268569	0.278013	1.05927	0.597624	0.267445	0.134931	0.106313	0.150335	0.743352	0.264681	0.513	3.88858
33	0.290968	0.174581	0.116387	0.0241686	0.907948	0.912039	0.249855	0.268354	0.277803	1.05862	0.597817	0.267351	0.134832	0.108269	0.151318	0.740413	0.264902	0.520495	3.92433
34	0.286844	0.172106	0.114737	0.0232663	0.903809	0.907931	0.249642	0.268134	0.277585	1.05796	0.598018	0.267256	0.134726	0.110117	0.152234	0.737649	0.265111	0.527652	3.95762
35	0.282948	0.169769	0.113179	0.0224331	0.899653	0.903797	0.249427	0.267911	0.277362	1.0573	0.598227	0.267158	0.134615	0.111864	0.15309	0.735045	0.265309	0.534487	3.98865
36	0.279266	0.16756	0.111706	0.0216628	0.895491	0.899647	0.249211	0.267686	0.277134	1.05662	0.598442	0.267059	0.134499	0.113519	0.153891	0.73259	0.265497	0.541014	4.01761
37	0.275784	0.16547	0.110313	0.0209499	0.89133	0.895489	0.248996	0.267461	0.276904	1.05594	0.598661	0.266959	0.13438	0.115087	0.154642	0.730271	0.265675	0.54725	4.04468
38	0.272488	0.163493	0.108995	0.0202894	0.887181	0.891333	0.248782	0.267236	0.276673	1.05525	0.598884	0.266859	0.134257	0.116576	0.155347	0.728077	0.265845	0.553208	4.07
39	0.269367	0.16162	0.107747	0.0196766	0.88305	0.887187	0.248569	0.267012	0.276442	1.05455	0.599109	0.266758	0.134133	0.11799	0.156011	0.725999	0.266006	0.558901	4.09372
40	0.26641	0.159846	0.106564	0.0191076	0.878947	0.883061	0.24836	0.26679	0.276211	1.05386	0.599337	0.266657	0.134007	0.119334	0.156636	0.72403	0.266159	0.564341	4.11595
41	0.263608	0.158165	0.105443	0.0185785	0.874879	0.878962	0.248153	0.266571	0.275982	1.05316	0.599565	0.266556	0.133879	0.120614	0.157225	0.722161	0.266306	0.56954	4.13681
42	0.26095	0.15657	0.10438	0.018086	0.870851	0.874897	0.247949	0.266355	0.275756	1.05246	0.599793	0.266456	0.133751	0.121832	0.157782	0.720385	0.266445	0.574509	4.15641
43	0.258428	0.155057	0.103371	0.017627	0.866871	0.870873	0.24775	0.266142	0.275532	1.05177	0.600021	0.266356	0.133623	0.122994	0.158309	0.718697	0.266578	0.579259	4.17483
44	0.256034	0.15362	0.102413	0.0171989	0.862943	0.866895	0.247554	0.265933	0.275311	1.05107	0.600248	0.266258	0.133495	0.124102	0.158807	0.717091	0.266706	0.583799	4.19215
45	0.25376	0.152256	0.101504	0.016799	0.859073	0.86297	0.247362	0.265728	0.275095	1.05038	0.600473	0.26616	0.133367	0.12516	0.159279	0.715561	0.266827	0.588139	4.20847
46	0.251601	0.15096	0.10064	0.0164252	0.855266	0.859103	0.247175	0.265527	0.274882	1.0497	0.600696	0.266063	0.13324	0.12617	0.159727	0.714103	0.266943	0.592288	4.22384
47	0.249548	0.149729	0.0998192	0.0160754	0.851525	0.855298	0.246992	0.265331	0.274674	1.04902	0.600917	0.265968	0.133115	0.127136	0.160152	0.712712	0.267055	0.596255	4.23834
48	0.247597	0.148558	0.0990386	0.0157477	0.847854	0.851558	0.246813	0.26514	0.27447	1.04834	0.601136	0.265874	0.13299	0.128058	0.160556	0.711386	0.267161	0.600047	4.25202
49	0.245741	0.147444	0.0982963	0.0154405	0.844255	0.847889	0.246639	0.264953	0.27427	1.04767	0.601351	0.265781	0.132867	0.128941	0.16094	0.710119	0.267263	0.603672	4.26493
50	0.243975	0.146385	0.0975901	0.0151522	0.840732	0.844292	0.246469	0.26477	0.274076	1.04702	0.601563	0.26569	0.132746	0.129786	0.161305	0.708909	0.267361	0.607138	4.27712
51	0.242295	0.145377	0.096918	0.0148814	0.837286	0.84077	0.246304	0.264593	0.273886	1.04637	0.601772	0.265601	0.132627	0.130595	0.161652	0.707753	0.267454	0.610452	4.28865
52	0.240696	0.144417	0.0962783	0.0146268	0.83392	0.837325	0.246144	0.26442	0.273701	1.04572	0.601977	0.265513	0.132509	0.131369	0.161983	0.706648	0.267544	0.613621	4.29955
53	0.239173	0.143504	0.0956692	0.0143872	0.830635	0.83396	0.245988	0.264252	0.273521	1.04509	0.602178	0.265428	0.132394	0.132111	0.162299	0.705591	0.26763	0.61665	4.30987
54	0.237722	0.142633	0.095089	0.0141617	0.827431	0.830675	0.245837	0.264089	0.273346	1.04447	0.602376	0.265344	0.132281	0.132821	0.162599	0.704579	0.267712	0.619546	4.31963
55	0.236341	0.141804	0.0945363	0.0139491	0.82431	0.827472	0.24569	0.263931	0.273176	1.04387	0.602569	0.265261	0.13217	0.133503	0.162886	0.703611	0.267791	0.622315	4.32888
56	0.235024	0.141014	0.0940096	0.0137487	0.821271	0.824351	0.245548	0.263777	0.273011	1.04327	0.602758	0.265181	0.132061	0.134155	0.16316	0.702685	0.267867	0.624962	4.33764
57	0.233769	0.140261	0.0935076	0.0135596	0.818316	0.821313	0.24541	0.263628	0.272851	1.04268	0.602943	0.265102	0.131955	0.134781	0.163421	0.701798	0.26794	0.627493	4.34594
58	0.232573	0.139544	0.093029	0.013381	0.815443	0.818357	0.245276	0.263484	0.272695	1.04211	0.603123	0.265026	0.131851	0.135382	0.16367	0.700948	0.26801	0.629913	4.35382
59	0.231432	0.138859	0.0925727	0.0132123	0.812653	0.815485	0.245147	0.263344	0.272544	1.04155	0.603299	0.264951	0.13175	0.135957	0.163908	0.700134	0.268077	0.632226	4.36128
60	0.230344	0.138206	0.0921374	0.0130527	0.809945	0.812694	0.245022	0.263208	0.272398	1.041	0.603471	0.264878	0.131651	0.136509	0.164136	0.699355	0.268142	0.634437	4.36837
61	0.229306	0.137583	0.0917223	0.0129018	0.807319	0.809986	0.2449	0.263077	0.272257	1.04047	0.603638	0.264807	0.131555	0.137039	0.164353	0.698608	0.268204	0.636551	4.37509
62	0.228315	0.136989	0.0913262	0.012759	0.804772	0.807359	0.244783	0.26295	0.27212	1.03994	0.603801	0.264738	0.131461	0.137547	0.164561	0.697892	0.268263	0.638571	4.38147
63	0.22737	0.136422	0.0909482	0.0126237	0.802305	0.804812	0.24467	0.262827	0.271987	1.03943	0.60396	0.264671	0.131369	0.138035	0.164759	0.697206	0.26832	0.640503	4.38754
64	0.226469	0.135881	0.0905874	0.0124956	0.799917	0.802345	0.24456	0.262708	0.271859	1.03894	0.604114	0.264606	0.13128	0.138502	0.164949	0.696549	0.268375	0.642349	4.3933
65	0.225608	0.135365	0.0902431	0.0123741	0.797605	0.799955	0.244454	0.262593	0.271734	1.03846	0.604263	0.264542	0.131194	0.138951	0.165131	0.695918	0.268428	0.644114	4.39877
66	0.224786	0.134871	0.0899143	0.0122589	0.795369	0.797643	0.244352	0.262482	0.271614	1.03799	0.604409	0.264481	0.13111	0.139381	0.165304	0.695314	0.268478	0.6458	4.40397
67	0.224001	0.134401	0.0896004	0.0121495	0.793206	0.795406	0.244253	0.262375	0.271498	1.03753	0.60455	0.264421	0.131029	0.139794	0.16547	0.694735	0.268527	0.647412	4.40891
68	0.223252	0.133951	0.0893006	0.0120458	0.791117	0.793243	0.244158	0.262272	0.271386	1.03708	0.604687	0.264363	0.13095	0.140191	0.165629	0.69418	0.268573	0.648953	4.41361
69	0.222536	0.133521	0.0890143	0.0119473	0.789098	0.791153	0.244066	0.262172	0.271278	1.03665	0.60482	0.264307	0.130873	0.140571	0.165781	0.693648	0.268618	0.650426	4.41808
70	0.221852	0.133111	0.0887408	0.0118537	0.787149	0.789133	0.243977	0.262076	0.271174	1.03624	0.604949	0.264253	0.130799	0.140936	0.165927	0.693138	0.268661	0.651833	4.42233
71	0.221199	0.132719	0.0884795	0.0117647	0.785267	0.787183	0.243892	0.261983	0.271073	1.03583	0.605073	0.2642	0.130727	0.141286	0.166066	0.692649	0.268702	0.653177	4.42638
72	0.220575	0.132345	0.0882298	0.0116802	0.783452	0.785301	0.243809	0.261893	0.270976	1.03544	0.605194	0.264149	0.130657	0.141621	0.166199	0.69218	0.268742	0.654462	4.43022
73	0.219978	0.131987	0.0879913	0.0115997	0.781701	0.783484	0.24373	0.261807	0.270882	1.03506	0.605311	0.2641	0.130589	0.141944	0.166326	0.69173	0.26878	0.65569	4.43389
74	0.219408	0.131645	0.0877633	0.0115233	0.780012	0.781732	0.243653	0.261723	0.270792	1.03469	0.605424	0.264052	0.130524	0.142252	0.166448	0.691299	0.268816	0.656863	4.43737
75	0.218863	0.131318	0.0875454	0.0114505	0.778384	0.780043	0.243579	0.261643	0.270704	1.03433	0.605533	0.264006	0.130461	0.142549	0.166565	0.690886	0.268851	0.657984	4.44069
76	0.218343	0.131006	0.0873371	0.0113812	0.776815	0.778414	0.243508	0.261565	0.27062	1.03398	0.605639	0.263961	0.1304	0.142833	0.166676	0.69049	0.268885	0.659055	4.44385
77	0.217845	0.130707	0.087138	0.0113153	0.775304	0.776845	0.24344	0.261491	0.270539	1.03365	0.605741	0.263918	0.130341	0.143106	0.166783	0.690111	0.268917	0.660079	4.44686
78	0.217369	0.130421	0.0869477	0.0112525	0.773849	0.775332	0.243374	0.261419	0.270461	1.03333	0.60584	0.263876	0.130284	0.143367	0.166886	0.689747	0.268948	0.661056	4.44972
79	0.216914	0.130149	0.0867657	0.0111926	0.772447	0.773876	0.24331	0.26135	0.270386	1.03301	0.605935	0.263836	0.130229	0.143618	0.166984	0.689398	0.268977	0.66199	4.45245
80	0.216479	0.129888	0.0865917	0.0111356	0.771098	0.772474	0.243249	0.261283	0.270314	1.03271	0.606027	0.263797	0.130176	0.143858	0.167077	0.689064	0.269006	0.662882	4.45505
81	0.216063	0.129638	0.0864253	0.0110813	0.769799	0.771124	0.24319	0.261219	0.270244	1.03242	0.606116	0.26376	0.130124	0.144089	0.167167	0.688744	0.269033	0.663734	4.45752
82	0.215665	0.129399	0.0862661	0.0110295	0.76855	0.769824	0.243133	0.261158	0.270177	1.03214	0.606202	0.263723	0.130075	0.14431	0.167253	0.688437	0.269059	0.664548	4.45988
83	0.215285	0.129171	0.0861139	0.0109802	0.767348	0.768574	0.243079	0.261098	0.270112	1.03187	0.606284	0.263689	0.130027	0.144522	0.167335	0.688143	0.269084	0.665326	4.46213
84	0.214921	0.128953	0.0859684	0.0109331	0.766191	0.767371	0.243026	0.261041	0.27005	1.0316	0.606364	0.263655	0.129981	0.144725	0.167413	0.687861	0.269108	0.666069	4.46427
85	0.214573	0.128744	0.0858291	0.0108882	0.765079	0.766214	0.242976	0.260986	0.26999	1.03135	0.606441	0.263623	0.129937	0.14492	0.167489	0.687591	0.269132	0.666778	4.46631
86	0.21424	0.128544	0.085696	0.0108453	0.76401	0.765101	0.242928	0.260933	0.269933	1.03111	0.606515	0.263591	0.129894	0.145107	0.167561	0.687333	0.269154	0.667455	4.46825
87	0.213921	0.128353	0.0855685	0.0108044	0.762982	0.764031	0.242881	0.260883	0.269877	1.03087	0.606586	0.263561	0.129853	0.145286	0.16763	0.687085	0.269175	0.668102	4.4701
88	0.213617	0.12817	0.0854467	0.0107654	0.761995	0.763003	0.242836	0.260834	0.269824	1.03065	0.606655	0.263532	0.129813	0.145457	0.167696	0.686847	0.269195	0.66872	4.47187
89	0.213325	0.127995	0.08533	0.0107282	0.761045	0.762014	0.242793	0.260787	0.269773	1.03043	0.606721	0.263504	0.129775	0.145621	0.167759	0.68662	0.269215	0.66931	4.47355
90	0.213046	0.127828	0.0852184	0.0106927	0.760133	0.761064	0.242752	0.260742	0.269724	1.03022	0.606785	0.263477	0.129738	0.145779	0.167819	0.686402	0.269234	0.669873	4.47516
91	0.212779	0.127668	0.0851117	0.0106587	0.759257	0.760151	0.242712	0.260698	0.269676	1.03002	0.606846	0.263452	0.129703	0.14593	0.167877	0.686193	0.269251	0.670411	4.47668
92	0.212524	0.127514	0.0850095	0.0106263	0.758415	0.759274	0.242674	0.260656	0.269631	1.02982	0.606905	0.263427	0.129668	0.146074	0.167933	0.685993	0.269269	0.670925	4.47814
93	0.212279	0.127368	0.0849118	0.0105954	0.757606	0.758432	0.242637	0.260616	0.269587	1.02964	0.606962	0.263403	0.129636	0.146213	0.167986	0.685802	0.269285	0.671415	4.47953
94	0.212046	0.127227	0.0848182	0.0105658	0.756829	0.757622	0.242601	0.260578	0.269545	1.02945	0.607016	0.26338	0.129604	0.146346	0.168036	0.685618	0.269301	0.671883	4.48085
95	0.211822	0.127093	0.0847287	0.0105376	0.756084	0.756845	0.242568	0.260541	0.269505	1.02928	0.607069	0.263357	0.129574	0.146473	0.168085	0.685442	0.269316	0.67233	4.48212
96	0.211607	0.126964	0.084643	0.0105106	0.755368	0.756099	0.242535	0.260505	0.269466	1.02911	0.607119	0.263336	0.129544	0.146595	0.168131	0.685274	0.269331	0.672757	4.48332
97	0.211402	0.126841	0.084561	0.0104848	0.75468	0.755382	0.242504	0.260471	0.269429	1.02895	0.607168	0.263316	0.129516	0.146711	0.168176	0.685113	0.269344	0.673164	4.48447
98	0.211206	0.126724	0.0844825	0.0104602	0.75402	0.754694	0.242474	0.260438	0.269393	1.0288	0.607215	0.263296	0.129489	0.146823	0.168218	0.684959	0.269358	0.673553	4.48556
99	0.211018	0.126611	0.0844074	0.0104367	0.753387	0.754034	0.242445	0.260407	0.269358	1.02865	0.60726	0.263277	0.129463	0.14693	0.168259	0.684811	0.269371	0.673924	4.48661
100	0.210839	0.126503	0.0843355	0.0104142	0.752779	0.7534	0.242417	0.260376	0.269325	1.02851	0.607303	0.263259	0.129438	0.147032	0.168298	0.68467	0.269383	0.674278	4.4876
